Time (s),Steering Angle (rad),Reference Steering Rate (rad/s),Measured Steering Rate (rad/s)
1.0158801078796387,2.8302636518826966e-05,-0.5473731542013186,0.0028302636518826967
1.0310111045837402,-0.0019528819197990608,-0.5456408630292934,-0.19811845563178876
1.0358810424804688,-0.004669935025606449,-0.5448469292724871,-0.2717053105807388
1.0488531589508057,-0.011688988882275536,-0.5416443455032902,-0.7019053856669087
1.0585510730743408,-0.01573626590446779,-0.5388562710699667,-0.4047277022192255
1.0696091651916504,-0.01995335874577301,-0.5351437269043301,-0.42170928413052183
1.080233097076416,-0.02612333350687729,-0.5310714347577551,-0.6169974761104279
1.090097188949585,-0.031500834445454415,-0.5263195118894515,-0.5377500938577126
1.103074073791504,-0.038859519940349425,-0.5196581942815688,-0.7358685494895011
1.1145861148834229,-0.04517100788404784,-0.5132091685268247,-0.6311487943698415
1.1223630905151367,-0.05020887718439904,-0.508163858505743,-0.5037869300351195
1.1325011253356934,-0.056293944035946834,-0.5015680186597344,-0.6085066851547798
1.1424131393432617,-0.06212428715882519,-0.4942448380664534,-0.5830343122878355
1.1493861675262451,-0.06651119581924338,-0.4889171413390097,-0.43869086604181873
1.1602530479431152,-0.07160567039263223,-0.48017720224235205,-0.5094474573388852
1.1709330081939697,-0.07653032914690812,-0.47119649056372115,-0.492465875427589
1.1833231449127197,-0.0823889749063053,-0.45983056551638496,-0.585864575939718
1.1967151165008545,-0.08850234439437192,-0.44714432868512344,-0.6113369488066622
1.2053990364074707,-0.0945591086094009,-0.43805721335088504,-0.6056764215028972
1.2140920162200928,-0.09880450408722494,-0.42888441497570834,-0.4245395477824043
1.2530760765075684,-0.11049349296950048,-0.3840241240705789,-1.1688988882275542
1.2794921398162842,-0.1207956526623535,-0.35029436530948993,-1.0302159692853017
1.2911691665649414,-0.12699393005997658,-0.3345940373905334,-0.6198277397623089
1.3063809871673584,-0.13197519408729014,-0.3134759393532928,-0.49812640273135533
1.313662052154541,-0.13384316809753272,-0.30313385903162987,-0.1867974010242579
1.3242700099945068,-0.13760741875453672,-0.28772082799626236,-0.37642506570040035
1.3360950946807861,-0.1409471298637583,-0.27019859314608746,-0.33397111092215714
1.3420350551605225,-0.1431547355122268,-0.26123802845021826,-0.22076056484685025
1.3554141521453857,-0.1465227492579672,-0.24077651051259605,-0.3368013745740417
1.3662421703338623,-0.14921149972725575,-0.22418269442092242,-0.2688750469288542
1.3849120140075684,-0.1533436846590045,-0.19431798602524697,-0.41321849317487447
1.4019792079925537,-0.1559475272187366,-0.1668146510537535,-0.2603842559732089
1.4140141010284424,-0.15897590932625108,-0.14661290616799028,-0.30283821075144934
1.4295601844787598,-0.16084388333649366,-0.12169951001377569,-0.1867974010242579
1.435608148574829,-0.16262694943717976,-0.11146629874924485,-0.17830661006860982
1.4437551498413086,-0.16452322608394115,-0.09665918354530405,-0.18962766467613967
1.455916166305542,-0.16650441064025903,-0.0760062573625698,-0.19811845563178776
1.4641990661621094,-0.1678063319201251,-0.06182665699951153,-0.13019212798660584
1.4744541645050049,-0.1687686215617652,-0.04425946574361598,-0.09622896416401072
1.4865059852600098,-0.16891013474435934,-0.02355907538056134,-0.014151318259414403
1.4996521472930908,-0.16891013474435934,-0.002448122661970221,0.0
1.5090370178222656,-0.16891013474435934,0.01382899328189702,0.0
1.517402172088623,-0.1688818321078405,0.029602468075329715,0.002830263651884546
1.5260910987854004,-0.1687686215617652,0.04454790599099152,0.011321054607529857
1.538384199142456,-0.1684572925600581,0.06560766714102376,0.031132900170710576
1.550049066543579,-0.1680327530122757,0.08546444436018108,0.04245395477824043
1.5571072101593018,-0.16749500291841798,0.09747767639958543,0.05377500938577029
1.567277193069458,-0.16675913436892847,0.11465061283617489,0.07358685494895101
1.5774691104888916,-0.16576854209076955,0.1317512162594843,0.09905922781589249
1.590287208557129,-0.16429680499179053,0.1502493910299225,0.14717370989790202
1.602358102798462,-0.16237222570851031,0.17287010576088666,0.19245792832802144
1.6085031032562256,-0.16107030442864426,0.18291566004427787,0.13019212798660584
1.6192891597747803,-0.15934384360099582,0.20029668059972466,0.1726460827648435
1.6314940452575684,-0.15744756695423442,0.21941258822460588,0.18962766467613967
1.6417369842529297,-0.1559758298552554,0.2357361939361125,0.14717370989790202
1.6505141258239746,-0.1545040927562764,0.24931144325108168,0.14717370989789924
1.6616461277008057,-0.1521832765617326,0.2662065437754516,0.2320816194543801
1.6733510494232178,-0.14955113136548168,0.2836380914832905,0.26321451962509346
1.6836750507354736,-0.14649444662144837,0.29867494679124906,0.3056684744033311
1.6920571327209473,-0.14394720933475394,0.31069827436721664,0.2547237286694426
1.7051072120666504,-0.13953199803781693,0.3289225170643368,0.4415211296937005
1.7148921489715576,-0.1365602212033401,0.34175566685844067,0.297177683447683
1.723332166671753,-0.1330789969115244,0.3534768049555172,0.34812242918157155
1.735072135925293,-0.12914493043540745,0.36678493256983735,0.39340664761169375
1.7456090450286865,-0.12467311386543278,0.3817445435611551,0.4471816569974668
1.756364107131958,-0.12022959993197695,0.39496010189514663,0.44435139334558366
1.7656121253967285,-0.11606911236370938,0.40584507296204564,0.41604875682675624
1.779738187789917,-0.1108331246077264,0.4217617804332667,0.5235987755982981
1.7883720397949219,-0.10723868976983537,0.43092840246660863,0.3594434837891028
1.7973201274871826,-0.10310650483808664,0.4404521497285514,0.4132184931748731
1.8090829849243164,-0.0985497803585555,0.45219579583228803,0.4556724479531149
1.8220791816711426,-0.09331379260257251,0.4640363738093939,0.5235987755982981
1.8316411972045898,-0.08940802876297439,0.472788107426829,0.390576383959812
1.844015121459961,-0.0838607120052843,0.48337182332512246,0.5547316757690087
1.8533082008361816,-0.07899265852404606,0.49071129300696137,0.4868053481238241
1.8617792129516602,-0.07511519732096676,0.49660036269849456,0.3877461203079302
1.8704102039337158,-0.07047356493187915,0.5031119111040635,0.4641632389087616
1.882512092590332,-0.06495455081070789,0.5105919287773746,0.5519014121171256
1.8940210342407227,-0.058190220682708245,0.5178219332260404,0.6764330127999645
1.9016799926757812,-0.05357689093013945,0.5219978502404462,0.46133297525687983
1.9134411811828613,-0.047067284530809245,0.5278048585647217,0.6509606399330202
1.922023057937622,-0.042284138959127485,0.5315940481382997,0.478314557168176
1.9367640018463135,-0.034472611279931245,0.5371864347077088,0.781152767919624
1.9460880756378174,-0.029349834070023565,0.5401356500015081,0.512277720990768
1.9543840885162354,-0.024878017500048904,0.5423692971394647,0.4471816569974661
1.9652681350708008,-0.01904767437717055,0.5447379446991591,0.5830343122878355
1.9777350425720215,-0.012424857431765038,0.5466692326960815,0.6622816945405511
1.985753059387207,-0.00792473822527155,0.5474707561508575,0.45001192064934875
1.9961941242218018,-0.0022642109215061574,0.5479903321971955,0.5660527303765394
2.0064620971679688,0.003254803199665101,0.5479270312118683,0.5519014121171257
2.0169291496276855,0.008773817320836359,0.5472756944959323,0.5519014121171257
2.0319981575012207,0.01593438436009958,0.5453379483707047,0.7160567039263223
2.039835214614868,0.019925056109254186,0.5438324004120557,0.3990671749154604
2.0500969886779785,0.02527425441131248,0.5415823249035374,0.5349198302058294
2.0612430572509766,0.03226500563146274,0.5379868236133876,0.6990751220150262
2.068373203277588,0.03693494065706919,0.5355057253578812,0.46699350256064476
2.0831592082977295,0.044095507696332414,0.5298845090843963,0.7160567039263224
2.093755006790161,0.050123969274842556,0.5249862693521761,0.6028461578510141
2.104804039001465,0.05564298339601382,0.5187106434831431,0.5519014121171263
2.1116321086883545,0.06039782633117675,0.514914631095614,0.47548429351629284
2.127458095550537,0.0684357751025236,0.5052729258116468,0.8037948771346858
2.138845205307007,0.07454914459059023,0.49696071083902804,0.6113369488066622
2.14755916595459,0.0779737636093683,0.4903486851829938,0.3424619018778066
2.156334161758423,0.08287011972712535,0.4834236532905775,0.48963561177570586
2.167603015899658,0.08906839712474847,0.47397653185503674,0.6198277397623116
2.1776700019836426,0.09354021369472312,0.46524679593591195,0.4471816569974654
2.1893420219421387,0.09900262254285673,0.4541079391898213,0.5462408848133606
2.1974010467529297,0.10344613647631257,0.44617462934330365,0.44435139334558366
2.209447145462036,0.10848400577666376,0.4338308623483764,0.5037869300351189
2.2236711978912354,0.11465398053776804,0.4190712190460149,0.6169974761104285
2.2316930294036865,0.11853144174084733,0.4093825903895181,0.3877461203079288
2.2451541423797607,0.12334288994904792,0.3936193063659818,0.48114482082005916
2.259674072265625,0.1293996541640769,0.37695163133931187,0.6056764215028972
2.268101215362549,0.1328808784558926,0.3654434066492442,0.34812242918157155
2.2770071029663086,0.13627719483815184,0.3535567890110337,0.33963163822592346
2.2888600826263428,0.14049428767945707,0.3377257100779613,0.42170928413052255
2.300523042678833,0.14456986733816815,0.3226547964191511,0.40755796587110815
2.307638168334961,0.14748503889960732,0.31199849170007904,0.2915171561439167
2.318387985229492,0.15037190782452767,0.29934403394877473,0.28868689249203494
2.327813148498535,0.1539663426624187,0.28270149664524447,0.3594434837891042
2.3414649963378906,0.15719284322556498,0.2623105384680123,0.3226500563146273
2.349107027053833,0.1598249884218159,0.25049983571783224,0.2632145196250907
2.360720157623291,0.16313639689451864,0.2325355175152398,0.3311408472702754
2.3728621006011963,0.16641950273070255,0.2134488948828528,0.3283105836183908
2.3814010620117188,0.16899504265391582,0.20058015792513278,0.25755399232132714
2.392045021057129,0.17227814849009973,0.18263625854559054,0.3283105836183908
2.4016411304473877,0.17434424095597412,0.16698199325055757,0.20660924658743862
2.412008047103882,0.17615560969317903,0.14988973291184587,0.1811368737204916
2.4232962131500244,0.1775707415191204,0.1311191879981446,0.1415131825941357
2.4340291023254395,0.17901417598158056,0.11309068465464883,0.14434344624601747
2.443819999694824,0.18000476825973952,0.09655736132823522,0.09905922781589527
2.4576292037963867,0.18099536053789844,0.0730843406106504,0.09905922781589249
2.465689182281494,0.1814765053587185,0.05929601743243315,0.04811448208200675
2.475116014480591,0.1819010449065009,0.04313013487997543,0.04245395477824043
2.4905030727386475,0.18232558445428332,0.01809662241815686,0.04245395477824043
2.5007681846618652,0.18263691345599042,-0.00034439664813036,0.031132900170710576
2.5089190006256104,0.1828350319116222,-0.015001342103232947,0.019811845563177943
2.517987012863159,0.18300484773073517,-0.03061319448465206,0.016981581911296173
2.5287420749664307,0.18303315036725398,-0.049080257058969415,0.0028302636518817703
2.5375101566314697,0.18303315036725398,-0.06409669268831894,0.0
2.5510880947113037,0.18303315036725398,-0.08722572351377125,0.0
2.560479164123535,0.18289163718465987,-0.10317493451674647,-0.014151318259411627
2.5731470584869385,0.1825237029099151,-0.12420643646314376,-0.03679342747447689
2.5808041095733643,0.18178783436042562,-0.13730264302303788,-0.07358685494894823
2.594510078430176,0.18054251835359722,-0.16000344564299193,-0.12453160068283953
2.6082170009613037,0.1789575707085429,-0.18171098933368782,-0.15849476450543187
2.615652084350586,0.17779716261127101,-0.19410418428060575,-0.11604080972718867
2.628174066543579,0.1753914385071707,-0.21354454288181843,-0.24057241041003097
2.636336088180542,0.1736932803160411,-0.2272827824782805,-0.16981581911296173
2.6467530727386475,0.17148567466757259,-0.24307999592275806,-0.22076056484685025
2.6550610065460205,0.16924976638258526,-0.2562328615865769,-0.22359082849873202
2.6670260429382324,0.16596666054640133,-0.2742499795010554,-0.3283105836183936
2.6766011714935303,0.16339112062318809,-0.2884108537495072,-0.25755399232132437
2.6857120990753174,0.1606740675173807,-0.30163644644767307,-0.27170531058073877
2.6968932151794434,0.15758908013682854,-0.31751367338690006,-0.30849873805521566
2.709645986557007,0.15424936902760697,-0.3351379903173032,-0.33397111092215714
2.7170400619506836,0.15122098692009248,-0.34513133468254104,-0.30283821075144934
2.727187156677246,0.14796618372042739,-0.35853582316211235,-0.32548031996650906
2.7375950813293457,0.14414532779038575,-0.37189175685246084,-0.3820855930041639
2.7528741359710693,0.13987162967604286,-0.39073575052888093,-0.42736981143428887
2.760390043258667,0.1361356816555577,-0.39972189274224285,-0.3735948020485158
2.7725000381469727,0.13206010199684662,-0.4131741225060786,-0.40755796587110815
2.782877206802368,0.12795621970161672,-0.4250411240035471,-0.4103882295229899
2.793755054473877,0.12320137676645379,-0.4367494457590033,-0.47548429351629284
2.8037121295928955,0.11870125755996029,-0.44668818270457317,-0.45001192064935
2.8139731884002686,0.11374829616916558,-0.4568863548450273,-0.4952961390794708
2.8236770629882812,0.10944629541830388,-0.4658927588310191,-0.43020007508617064
2.8342530727386475,0.10423861029883971,-0.47523612894832656,-0.5207685119464164
2.8425910472869873,0.09985170163842154,-0.4822272250964015,-0.43869086604181734
2.855570077896118,0.09450250333636324,-0.49242220088008787,-0.5349198302058294
2.865633010864258,0.0898325683107568,-0.4991864394150243,-0.46699350256064476
2.8744900226593018,0.08453997528173615,-0.5058531367620132,-0.5292593029020645
2.8865461349487305,0.07896435588752723,-0.5129388222773628,-0.5575619394208919
2.896599054336548,0.0742095129523643,-0.5190536903428923,-0.47548429351629284
2.9085960388183594,0.06832256455644829,-0.525382944507285,-0.5886948395916011
2.9162330627441406,0.06365262953084184,-0.5290794086468851,-0.46699350256064476
2.926361083984375,0.058275128592264726,-0.5333555121075129,-0.5377500938577119
2.93688702583313,0.0525862986519805,-0.5372337608878269,-0.5688829940284225
2.9480371475219727,0.047067284530809245,-0.5406258545349775,-0.5519014121171256
2.9573330879211426,0.04154827040963799,-0.5430745378984008,-0.5519014121171256
2.9723520278930664,0.034472611279931245,-0.5459371143635661,-0.7075659129706743
2.9812591075897217,0.029066807704835294,-0.5470637487304282,-0.5405803575095951
2.988560199737549,0.02434026740619119,-0.547667643467779,-0.47265402986441035
3.000439167022705,0.018340108464199874,-0.5480333646456191,-0.6000158941991317
3.0091001987457275,0.013104120708216885,-0.5478187938357444,-0.5235987755982989
3.0207550525665283,0.006736027491480818,-0.5468904451098163,-0.6368093216736066
3.031233072280884,0.0012170133703095596,-0.5454309413198829,-0.5519014121171258
3.0422940254211426,-0.005094474573388854,-0.5432463055288108,-0.6311487943698413
3.0533251762390137,-0.010302159692853016,-0.5404461357876401,-0.5207685119464163
3.0616610050201416,-0.015594752721873658,-0.5378462153529541,-0.5292593029020641
3.0736680030822754,-0.02173642484645911,-0.5335011371945404,-0.614167212458545
3.087937116622925,-0.029066807704835294,-0.5273481090691751,-0.7330382858376185
3.095938205718994,-0.03331220318265934,-0.5235154572741106,-0.4245395477824043
3.1043381690979004,-0.03843498039256702,-0.5189612862512167,-0.5122777209907683
3.1145100593566895,-0.04367096814855001,-0.5130671968727281,-0.5235987755982989
3.124819040298462,-0.04907677172364596,-0.5065594992690664,-0.5405803575095951
3.1353161334991455,-0.054510877935260736,-0.4993878336853022,-0.5434106211614775
3.1458840370178223,-0.05994498414687551,-0.4916236959333493,-0.5434106211614775
3.15580415725708,-0.06501115608374554,-0.483836627687548,-0.5066171936870028
3.167729139328003,-0.07064338075099211,-0.47386398178974715,-0.5632224667246568
3.1764070987701416,-0.07503028941141028,-0.4661778601726471,-0.43869086604181734
3.1884560585021973,-0.08020967189435563,-0.454939968350701,-0.5179382482945346
3.2003610134124756,-0.08538905437730096,-0.44322249717708073,-0.5179382482945333
3.2130231857299805,-0.09076655531587809,-0.4300438797508976,-0.5377500938577126
3.220867156982422,-0.09450250333636324,-0.42153286865611217,-0.3735948020485158
3.234222173690796,-0.10033284645924159,-0.4064794694117912,-0.5830343122878348
3.2461280822753906,-0.10483296566573508,-0.3927102259279774,-0.4500119206493486
3.2539072036743164,-0.10851230841318259,-0.3829875537313782,-0.3679342747447509
3.2633771896362305,-0.11250298016233719,-0.3711421705342158,-0.39906717491546007
3.272674083709717,-0.1161823229097847,-0.35919259570577877,-0.3679342747447509
3.2845261096954346,-0.12028620520501461,-0.3435611668522825,-0.4103882295229913
3.2950491905212402,-0.1241636664080939,-0.32925534896746883,-0.3877461203079288
3.308579206466675,-0.1276165880633908,-0.310701993923674,-0.3452921655296898
3.318031072616577,-0.13095629917261237,-0.298292129802157,-0.33397111092215714
3.3268930912017822,-0.1345507340105034,-0.2840647195289885,-0.3594434837891042
3.3350701332092285,-0.1374093002989049,-0.27171465071210876,-0.2858566288401504
3.3524231910705566,-0.14216414323406784,-0.24575796000328312,-0.47548429351629284
3.357837200164795,-0.1446264726112058,-0.23700794412158052,-0.2462329377137945
3.3687870502471924,-0.14759824944568262,-0.21987741588542967,-0.297177683447683
3.3808040618896484,-0.1500888814593394,-0.201094232187633,-0.24906320136567905
3.389752149581909,-0.15212667128869495,-0.18635229846456944,-0.20377898293555408
3.398541212081909,-0.15362671102419279,-0.17204097091273263,-0.1500039735497838
3.4090070724487305,-0.15515505339620944,-0.15484961329198982,-0.15283423720166556
3.4192001819610596,-0.15645697467607547,-0.13793042787293727,-0.13019212798660307
3.429802179336548,-0.15773059331942269,-0.12020655873618132,-0.1273618643347213
3.4459919929504395,-0.15940044887403348,-0.09319289296744715,-0.16698555546107996
3.4560351371765137,-0.1603627385156736,-0.075784698850034,-0.09622896416401072
3.466271162033081,-0.16092879124605014,-0.05884915551163357,-0.056605273037654835
3.476145029067993,-0.1617495677050961,-0.04214673023699403,-0.08207764590459632
3.4886112213134766,-0.1624854362545856,-0.020421400672336724,-0.07358685494895101
3.4971230030059814,-0.16290997580236802,-0.005798398810011892,-0.04245395477824043
3.5070559978485107,-0.16319300216755628,0.01180503759441028,-0.02830263651882603
3.5192251205444336,-0.16344772589622572,0.03198320484260386,-0.02547237286694426
3.530330181121826,-0.1635326338057822,0.051793896312238775,-0.008490790955648087
3.5397660732269287,-0.1635326338057822,0.06761227770145295,0.0
3.5502800941467285,-0.16347602853274457,0.08555648312762378,0.005660527303763541
3.5636940002441406,-0.16302318634844332,0.10744295805092509,0.04528421843012498
3.573911190032959,-0.16228731779895383,0.12576194092128215,0.07358685494894823
3.583073139190674,-0.16129672552079488,0.14000431428879795,0.09905922781589527
3.5938870906829834,-0.16013631742352297,0.15813169061457877,0.11604080972719144
3.6016011238098145,-0.1590042119627699,0.17166873105749617,0.1132105460753069
3.615037202835083,-0.15719284322556498,0.19203044353896265,0.1811368737204916
3.6250081062316895,-0.15526826394228474,0.20942138583009598,0.19245792832802422
3.6344521045684814,-0.15328707938596686,0.22435423381679767,0.19811845563178776
3.6478090286254883,-0.15054172364364063,0.24511641298911438,0.2745355742326233
3.6561710834503174,-0.14833411799517213,0.2576896497501901,0.22076056484685025
3.666121006011963,-0.14587178861803418,0.27204397325085933,0.2462329377137945
3.677385091781616,-0.14290001178355735,0.28954473825154287,0.297177683447683
3.689115047454834,-0.13944709012826045,0.3058096827562816,0.3452921655296898
3.6989660263061523,-0.13619228692859536,0.3204046984152404,0.32548031996650906
3.7130579948425293,-0.1320317993603278,0.3390963131727447,0.41604875682675624
3.7198240756988525,-0.12976758843882163,0.34882684242990214,0.22642109215061657
