Time (s),Steering Angle (rad),Reference Steering Rate (rad/s),Measured Steering Rate (rad/s)
0.004921913146972656,0.004160487568267564,1.0489838743097835,2.080243784133782
0.008857965469360352,0.004217092841305218,0.937201349838456,0.02830263651882681
0.012153863906860352,0.005547316757690085,0.8001735340804016,0.6651119581924337
0.015964984893798828,0.00885872523039284,0.5999294715828019,1.6557042363513772
0.01920485496520996,0.012085225793539114,0.40227934344039906,1.6132502815731373
0.02300882339477539,0.015311726356685389,0.14953317509466799,1.6132502815731373
0.02651500701904297,0.01706648982085266,-0.09202728676460988,0.8773817320836359
0.030212879180908203,0.017858963643379817,-0.3401377143042391,0.39623691126357796
0.03340888023376465,0.017604239914710374,-0.5417915418859675,-0.1273618643347213
0.03715991973876953,0.016755160819145565,-0.7411733955358929,-0.4245395477824043
0.04024386405944824,0.01567966063143014,-0.8894775753139389,-0.5377500938577133
0.04398703575134277,0.013924897167262867,-1.013893279502923,-0.8773817320836359
0.04651284217834473,0.011830502064869672,-1.0674920817090452,-1.0471975511965976
0.04860401153564453,0.0100757386007024,-1.0909856430104976,-0.8773817320836359
0.053450822830200195,0.00662281694540551,-1.0731257575552686,-1.726460827648445
0.057272911071777344,0.0030566847440333124,-0.9933898855047791,-1.7830661006860988
0.06093883514404297,-0.00022642109215061573,-0.855187876868282,-1.6415529180919641
0.06432890892028809,-0.0028868689249203507,-0.6909951521140414,-1.3302239163848675
0.06808996200561523,-0.005264290392501815,-0.47234526303448504,-1.1887107337907323
0.07132792472839355,-0.007019053856669088,-0.2626385147070916,-0.8773817320836363
0.07509088516235352,-0.008971935776468149,-0.0062032118059989405,-0.9764409598995304
0.07850790023803711,-0.010188949146777707,0.2271813786405592,-0.6085066851547792
0.08227300643920898,-0.010924817696267209,0.47196592610141946,-0.3679342747447507
0.08547282218933105,-0.01109463351538017,0.6602990147752497,-0.08490790955648087
0.08921194076538086,-0.010783304513673073,0.8388858022921386,0.15566450085354855
0.09229183197021484,-0.010104041237221226,0.964083262442175,0.33963163822592346
0.09600496292114258,-0.00849079095564809,1.0586931317328363,0.8066251407865682
0.0997309684753418,-0.005717132576803047,1.095645704058962,1.3868291894225215
0.10246801376342773,-0.0028868689249203507,1.0845426841908712,1.4151318259413481
0.10682988166809082,0.0006509606399330202,1.0017166250698808,1.7689147824266853
0.11070990562438965,0.00345292165529689,0.8655148266956723,1.4009805076819348
0.11423897743225098,0.005547316757690085,0.6958424303082401,1.0471975511965976
0.11859583854675293,0.008405883046091609,0.44085473760943594,1.4292831442007619
0.12233304977416992,0.01072669924063542,0.19501998273003834,1.1604080972719057
0.1255500316619873,0.012538067977840347,-0.025398520236831288,0.9056843686024632
0.12919402122497559,0.013670173438593424,-0.2632314806583499,0.5660527303765388
0.1322638988494873,0.014066410349857002,-0.4719629622583,0.19811845563178898
0.1360619068145752,0.01381168662118756,-0.6921568932523638,-0.1273618643347213
0.13962101936340332,0.01316072598125454,-0.8632229994018048,-0.3254803199665103
0.14349794387817383,0.012000317883982634,-1.0006206150748072,-0.5802040486359529
0.14678692817687988,0.01044367287544715,-1.0713700599708873,-0.7783225042677419
0.1504378318786621,0.008773817320836359,-1.0959216203088626,-0.8349277773053955
0.15372896194458008,0.006254882670660759,-1.0689439281933981,-1.2594673250877997
0.15662002563476562,0.003962369112635775,-1.0074761240605112,-1.146256779012492
0.1602189540863037,0.00045284218430123146,-0.8852348530485806,-1.7547634641672718
0.16400504112243652,-0.00280196101536387,-0.708490117526944,-1.6274015998325506
0.16723895072937012,-0.005009566663832373,-0.5247760465433148,-1.1038028242342515
0.17117094993591309,-0.0067643301279996446,-0.2735186694743362,-0.8773817320836359
0.17444205284118652,-0.008207764590459821,-0.050671868426867696,-0.7217172312300882
0.1781299114227295,-0.009537988506844688,0.20165370604503913,-0.6651119581924337
0.18188786506652832,-0.010047435964183574,0.44790612003402547,-0.2547237286694426
0.1856088638305664,-0.009877620145070612,0.6672579364784957,0.08490790955648087
0.1887340545654297,-0.009368172687731725,0.8247583972643492,0.2547237286694435
0.19255590438842773,-0.008207764590459821,0.9725642197756978,0.580204048635952
0.1957998275756836,-0.006594514308886683,1.0549699152446361,0.8066251407865691
0.19976401329040527,-0.004330303387380526,1.0956741498163776,1.1321054607530785
0.20299983024597168,-0.001726460827648445,1.0788476371058804,1.3019212798660404
0.2065730094909668,0.0007075659129706742,1.0087469796156978,1.2170133703095596
0.21028685569763184,0.0038774612030792943,0.8826349067543732,1.58494764505431
0.2125718593597412,0.006254882670660759,0.7791191930796142,1.1887107337907326
0.21685194969177246,0.009396475324250553,0.5479603895210972,1.5707963267948968
0.22056198120117188,0.012000317883982634,0.31398308945552494,1.3019212798660402
0.22387385368347168,0.013783383984668733,0.08998195016304594,0.89153305034305
0.22759294509887695,0.014887186808902985,-0.1652622631073862,0.5519014121171256
0.23099398612976074,0.015424936902760696,-0.3910905011135377,0.2688750469288558
0.23463797569274902,0.015368331629723044,-0.6134534522270795,-0.028302636518826377
0.23786282539367676,0.014972094718459466,-0.7837958515952506,-0.19811845563178898
0.2416248321533203,0.014066410349857002,-0.9412806157664553,-0.4528421843012316
0.24468398094177246,0.012566370614359173,-1.031360840943999,-0.7500198677489146
0.2483968734741211,0.010132343873740055,-1.0892259975311895,-1.2170133703095594
0.25191497802734375,0.007641711860083281,-1.0895606577027728,-1.2453160068283866
0.2556300163269043,0.004868053481238238,-1.0323409822403533,-1.3868291894225215
0.2583498954772949,0.0019811845563178876,-0.9543234305015297,-1.4434344624601754
0.26253700256347656,-0.000849079095564809,-0.78245177629475,-1.4151318259413483
0.2657899856567383,-0.004358606023899353,-0.6102111362819956,-1.754763464167272
0.26987385749816895,-0.0075568039505268,-0.3594048719830112,-1.5990989633137231
0.2727808952331543,-0.009311567414694072,-0.16513240850289154,-0.8773817320836363
0.27648091316223145,-0.010896515059748382,0.08955648027368977,-0.792473822527155
0.27974987030029297,-0.011632383609237884,0.31055200420722484,-0.3679342747447507
0.28320884704589844,-0.011943712610944979,0.5291125314669147,-0.15566450085354766
0.28636789321899414,-0.011972015247463807,0.7082169678985588,-0.014151318259414056
0.28990697860717773,-0.011547475699681403,0.8749715716119092,0.21226977389120216
0.2922170162200928,-0.010358764965890669,0.9625732043829547,0.5943553668953669
0.2957570552825928,-0.008179461953940993,1.0543691626691545,1.089651505974838
0.30130887031555176,-0.0050378693003512,1.0947745574929968,1.5707963267948963
0.30554699897766113,-0.0012736186433472134,1.0347471136207742,1.8821253285019932
0.30864882469177246,0.0028302636518826967,0.944238676760375,2.0519411476149547
0.3124048709869385,0.006000158941991317,0.7884548943006418,1.58494764505431
0.3159489631652832,0.008207764590459821,0.6013606017952717,1.1038028242342521
0.3194160461425781,0.010471975511965978,0.38859221680991335,1.1321054607530785
0.3237619400024414,0.012141831066576769,0.09890375380330862,0.8349277773053955
0.32726192474365234,0.013726778711631079,-0.14235020386773597,0.792473822527155
0.3309769630432129,0.015141910537572427,-0.39071621320780464,0.7075659129706742
0.33421897888183594,0.01596268699661841,-0.5897324314619787,0.41038822952299114
0.337893009185791,0.016104200179212543,-0.7849954394964236,0.07075659129706681
0.34112000465393066,0.01519851581061008,-0.9172700467465179,-0.4528421843012316
0.34476494789123535,0.013132423344735713,-1.033075988846248,-1.0330462329371835
0.3480188846588135,0.01064179133107894,-1.0860152992238568,-1.2453160068283866
0.35201287269592285,0.0075568039505268,-1.0887990234227571,-1.54249369027607
0.355694055557251,0.004358606023899353,-1.0309678686370378,-1.5990989633137231
0.35869503021240234,0.0015000397354978292,-0.9422751597210685,-1.4292831442007619
0.3627018928527832,-0.00045284218430123146,-0.7748411689542178,-0.9764409598995304
0.3672459125518799,-0.0037642506570039866,-0.5253208548431153,-1.6557042363513774
0.3706319332122803,-0.006028461578510144,-0.30909672618979755,-1.1321054607530787
0.3750438690185547,-0.008264369863497474,-0.009638056755358808,-1.1179541424936648
0.37830591201782227,-0.009651199052919996,0.21395762807614083,-0.693414594711261
0.3822309970855713,-0.01052858078500363,0.4694866771687742,-0.4386908660418175
0.38643598556518555,-0.010783304513673073,0.7114148281037549,-0.1273618643347213
0.3896310329437256,-0.010387067602409497,0.8638196336975003,0.1981184556317881
0.3933448791503906,-0.009283264778175244,0.9963337010917115,0.5519014121171265
0.39646291732788086,-0.0073586854948950115,1.0663243886445366,0.9622896416401163
0.40042686462402344,-0.004330303387380526,1.095934928017131,1.5141910537572427
0.4038839340209961,-0.0015566450085354832,1.0664541761918789,1.3868291894225213
0.40755486488342285,0.001726460827648445,0.9802647303868026,1.6415529180919641
0.41097283363342285,0.00447181656997466,0.8538140745304914,1.3726778711631076
0.4147319793701172,0.007471896040970319,0.6694494242093565,1.5000397354978292
0.41837501525878906,0.00950968587032586,0.4546305563618234,1.0188949146777708
0.421766996383667,0.010924817696267209,0.2340675907138783,0.7075659129706742
0.42485499382019043,0.012396554795246211,0.02231569064707469,0.7358685494895014
0.42865800857543945,0.01381168662118756,-0.2370758827273914,0.7075659129706742
0.4318850040435791,0.014717370989790023,-0.4482807346476935,0.4528421843012316
0.43560099601745605,0.015085305264534773,-0.6673621413417892,0.1839671373723749
0.43884897232055664,0.01474567362630885,-0.8300029312044613,-0.16981581911296173
0.4427189826965332,0.013556962892518117,-0.9775065674833694,-0.594355366895366
0.4462299346923828,0.011547475699681403,-1.0624655719877076,-1.004743596418357
0.448483943939209,0.009537988506844688,-1.090103020658244,-1.004743596418357
0.45273590087890625,0.006651119581924337,-1.0819635217297383,-1.4434344624601756
0.4564688205718994,0.0037076453839663326,-1.0116582588093233,-1.4717370989790024
0.45972490310668945,0.0009622896416401169,-0.9045993264546265,-1.3726778711631078
0.46343398094177246,-0.0017830661006860988,-0.738277640153538,-1.3726778711631078
0.4667530059814453,-0.004669935025606449,-0.554035347219807,-1.4434344624601751
0.470477819442749,-0.006707724854961991,-0.31978310188540326,-1.0188949146777708
0.47390198707580566,-0.008151159317422167,-0.08819815887872078,-0.7217172312300878
0.4775669574737549,-0.009368172687731725,0.16370385173428284,-0.6085066851547792
0.480694055557251,-0.010019133327664746,0.3725138944052356,-0.3254803199665103
0.48436999320983887,-0.010302159692853016,0.5979630656725372,-0.14151318259413534
0.4876270294189453,-0.010188949146777707,0.7724521571007201,0.05660527303765449
0.4906778335571289,-0.009764409598995303,0.9065345001270649,0.21226977389120216
0.4943099021911621,-0.008462488319129264,1.0222555887740565,0.6509606399330197
0.4985220432281494,-0.006028461578510144,1.0901163550714368,1.2170133703095598
0.501762866973877,-0.0030000794709956584,1.090629361025456,1.5141910537572427
0.5054340362548828,0.00011321054607530787,1.036818899759829,1.556645008535483
0.5088150501251221,0.0031415926535897933,0.938628726852875,1.5141910537572427
0.5115938186645508,0.005632224667246566,0.8255775837833607,1.2453160068283864
0.51590895652771,0.009028541049505802,0.6036073421261733,1.6981581911296177
0.5190880298614502,0.01100972560582369,0.40944786953346474,0.990592278158944
0.5227909088134766,0.013019212798660404,0.1639798451757074,1.004743596418357
0.5264568328857422,0.01417962089593231,-0.08723252208240874,0.5802040486359529
0.5297839641571045,0.015255121083647735,-0.31212630990689955,0.5377500938577124
0.5337450504302979,0.01593438436009958,-0.5613149553326625,0.33963163822592346
0.5368218421936035,0.016019292269656062,-0.7324577759203832,0.04245395477824043
0.5408279895782471,0.01539663426624187,-0.9121427047611907,-0.3113290017070962
0.5441079139709473,0.014038107713338176,-1.017026509215031,-0.6792632764518469
0.5479118824005127,0.011321054607530787,-1.0849157859848926,-1.3585265529036947
0.551048994064331,0.008830422593874013,-1.0944298070018945,-1.2453160068283866
0.5547409057617188,0.006028461578510144,-1.0513496302863963,-1.4009805076819346
0.5580518245697021,0.0029151715614391775,-0.9646731863687911,-1.5566450085354833
0.5618119239807129,-8.490790955648089e-05,-0.8165958435964574,-1.5000397354978292
0.5649168491363525,-0.0030849873805521393,-0.6586019181113636,-1.5000397354978292
0.5686559677124023,-0.005349198302058296,-0.43713564205834815,-1.1321054607530785
0.5719079971313477,-0.006792632764518472,-0.22402566160828277,-0.7217172312300878
0.5750799179077148,-0.008009646134828031,-0.04743392983647731,-0.6085066851547797
0.5788369178771973,-0.009453080597288208,0.2492979519284147,-0.7217172312300882
0.582603931427002,-0.010358764965890669,0.4926221686233717,-0.4528421843012307
0.5860519409179688,-0.01072669924063542,0.6916245888011481,-0.18396713737237577
0.5897810459136963,-0.01052858078500363,0.8698906529205848,0.09905922781589492
0.5920798778533936,-0.00962289641640117,0.9579566084645892,0.4528421843012307
0.5962789058685303,-0.007868132952233896,1.0632214164414837,0.8773817320836368
0.5997829437255859,-0.004528421843012315,1.0957326136192749,1.6698555546107905
0.6035468578338623,-0.0011887107337907325,1.071615530971499,1.6698555546107912
0.6068129539489746,0.001726460827648445,1.0020828359031302,1.4575857807195887
0.6104748249053955,0.0048963561177570655,0.8747302189123062,1.5849476450543103
0.6139118671417236,0.007386988131413838,0.7130996325571852,1.2453160068283862
0.6176760196685791,0.009849317508551784,0.49828728227033753,1.2311646885689729
0.6207530498504639,0.011349357244049613,0.3012905787160954,0.7500198677489146
0.6243429183959961,0.012622975887396828,0.05809739558405044,0.6368093216736074
0.6276290416717529,0.014123015622894657,-0.16799514880112476,0.7500198677489146
0.6314640045166016,0.015453239539279524,-0.4211540860697507,0.6651119581924337
0.6347248554229736,0.01604759490617489,-0.6187008223260332,0.297177683447683
0.6384289264678955,0.01593438436009958,-0.8104913451525344,-0.05660527303765449
0.641981840133667,0.015057002628015946,-0.9535746865974749,-0.4386908660418175
0.6457359790802002,0.012849396979547442,-1.0535968238224849,-1.1038028242342521
0.648798942565918,0.010330462329371843,-1.0920022932622482,-1.2594673250877997
0.652461051940918,0.007726619769639762,-1.084800552232584,-1.3019212798660402
0.655709981918335,0.004669935025606449,-1.0303320100497444,-1.5283423720166565
0.6595590114593506,0.00158494764505431,-0.9113115469739453,-1.5424936902760695
0.6631519794464111,-0.0013302239163848675,-0.7522646712615739,-1.4575857807195887
0.6655969619750977,-0.003339711109221582,-0.619787358375374,-1.004743596418357
0.6680469512939453,-0.0046982376621252766,-0.4732844154861894,-0.6792632764518474
0.6723458766937256,-0.006424698489773721,-0.1942152902553366,-0.8632304138242223
0.6761219501495361,-0.008066251407865686,0.06496298033233192,-0.8207764590459823
0.6797399520874023,-0.00950968587032586,0.3097551397677568,-0.7217172312300874
0.6835918426513672,-0.010273857056334188,0.5520563797446594,-0.3820855930041639
0.6878929138183594,-0.010387067602409497,0.7846126064086668,-0.05660527303765449
0.6911640167236328,-0.009679501689438822,0.9248845356412528,0.35378295648533753
0.6949009895324707,-0.008292672500016302,1.0362113798333334,0.6934145947112601
0.6983048915863037,-0.005717132576803047,1.0884529619860626,1.2877699616066274
0.7020668983459473,-0.002547237286694427,1.0884057493667947,1.58494764505431
0.7055699825286865,0.00033963163822592357,1.0337664835597005,1.4434344624601751
0.7093119621276855,0.0036510401109286785,0.9208772117570719,1.6557042363513774
0.7123758792877197,0.0063680932167360675,0.7894647448688553,1.3585265529036945
0.7160990238189697,0.008830422593874013,0.5919479271392196,1.2311646885689729
0.7196359634399414,0.011151238788417825,0.3743941108561146,1.1604080972719057
0.7233879566192627,0.012764489069990961,0.12343143333361808,0.8066251407865682
0.726632833480835,0.013953199803781695,-0.09991428991986355,0.5943553668953669
0.7306180000305176,0.015170213174091254,-0.3669957938371757,0.6085066851547792
0.7338118553161621,0.015792871177505448,-0.5654444879441658,0.3113290017070971
0.737462043762207,0.015821173814024272,-0.764149714753156,0.014151318259412321
0.7405369281768799,0.015255121083647735,-0.9009979053977382,-0.28302636518826896
0.7443008422851562,0.013924897167262867,-1.02185820065651,-0.6651119581924337
0.7475848197937012,0.01120784406145548,-1.0815728216267373,-1.3585265529036938
0.7513220310211182,0.008207764590459821,-1.0932368092165357,-1.5000397354978292
0.7537858486175537,0.005943553668953663,-1.0677603829536573,-1.132105460753079
0.7575278282165527,0.003311408472702755,-0.9812207238323969,-1.316072598125454
0.7611908912658691,8.490790955648089e-05,-0.8509072008612556,-1.613250281573137
0.7648370265960693,-0.0029434741979580043,-0.6633276640362021,-1.5141910537572425
0.7680878639221191,-0.005066171936870027,-0.4727274932538658,-1.0613488694560114
0.7712409496307373,-0.006453001126292548,-0.26891149061366915,-0.6934145947112605
0.7749018669128418,-0.008009646134828031,-0.018874795860431476,-0.7783225042677414
0.7781238555908203,-0.009085146322543456,0.2014535775903402,-0.5377500938577124
0.7817380428314209,-0.009905922781589438,0.4382586243525882,-0.41038822952299114
0.7854659557342529,-0.010245554419815362,0.6594756946526129,-0.16981581911296173
0.7885348796844482,-0.0100757386007024,0.8154404480988297,0.08490790955648087
0.7922248840332031,-0.00905684368602463,0.9618812966596504,0.5094474573388852
0.795428991317749,-0.0073586854948950115,1.0476117267937965,0.8490790955648091
0.7991828918457031,-0.005405803575095951,1.0938553139936582,0.9764409598995304
0.8024868965148926,-0.0018396713737237529,1.0845517063643713,1.783066100686099
0.8062210083007812,0.0011604080972719055,1.0180542408986746,1.5000397354978292
0.809412956237793,0.003934066476116948,0.9168977715399821,1.386829189422521
0.8131518363952637,0.007047356493187914,0.7597022201899588,1.5566450085354833
0.8165819644927979,0.009764409598995303,0.5636880893201496,1.3585265529036943
0.8193209171295166,0.011604080972719056,0.39368453281346316,0.9198356868618763
0.8235468864440918,0.013273936527329847,0.11274590812320663,0.8349277773053955
0.8272809982299805,0.014660765716752368,-0.14358741605756908,0.693414594711261
0.8305599689483643,0.01576456854098662,-0.3632895314126776,0.5519014121171256
0.8343648910522461,0.016557042363513776,-0.5976685560726523,0.39623691126357796
0.8375778198242188,0.016641950273070256,-0.7698571723292328,0.04245395477824043
0.8412399291992188,0.016019292269656062,-0.921542707666738,-0.3113290017070971
0.8442740440368652,0.01426452880548879,-1.021510980877593,-0.8773817320836359
0.8479528427124023,0.011858804701388498,-1.0854005534626947,-1.202862052050146
0.851219892501831,0.008717212047798706,-1.0937140612717378,-1.570796326794896
0.8549509048461914,0.0055756193942089124,-1.047271251494459,-1.5707963267948968
0.8581418991088867,0.0029151715614391775,-0.961720661159095,-1.3302239163848675
0.8618359565734863,-0.00019811845563178876,-0.815447031058811,-1.5566450085354833
0.8649239540100098,-0.002660447832769735,-0.6585389178887728,-1.2311646885689729
0.8687169551849365,-0.004868053481238238,-0.43322052129375194,-1.1038028242342517
0.8719098567962646,-0.0061699747611042785,-0.22381992609032333,-0.6509606399330201
0.8756940364837646,-0.007698317133120935,0.035656619318147,-0.7641711860083282
0.8789408206939697,-0.009028541049505802,0.25646814516327854,-0.6651119581924333
