Time (s),Steering Angle (rad),Reference Steering Rate (rad/s),Measured Steering Rate (rad/s)
0.005322933197021484,0.0,1.0954994378480256,0.0
0.01544189453125,0.0020377898293555416,1.0910179646036582,0.20377898293555416
0.025807857513427734,0.013726778711631079,1.0818598887018038,1.1688988882275537
0.03575491905212402,0.02238738548639213,1.0687442746856963,0.8660606774761052
0.04622292518615723,0.029236623523948256,1.0504624352699061,0.6849238037556126
0.057817935943603516,0.03953878321680127,1.0249729688353406,1.0302159692853017
0.06707501411437988,0.0478597583533364,1.0006521092096647,0.8320975136535125
0.07771587371826172,0.058727970776565955,0.9685405378638365,1.0868212423229557
0.08754396438598633,0.06903013046941897,0.9350328797216076,1.0302159692853017
0.09824585914611816,0.07947380334486612,0.8945240322573401,1.0443672875447145
0.10809898376464844,0.08943633139949321,0.8535967913967232,0.9962528054627092
0.11855602264404297,0.09920074099848852,0.8066414635288967,0.9764409598995313
0.1287829875946045,0.10805946622888135,0.7573139072430735,0.8858725230392828
0.13893699645996094,0.1172295204609813,0.705238766835492,0.9170054232099947
0.1495499610900879,0.12591842987226118,0.6477796572172497,0.8688909411279879
0.1595618724822998,0.1334186285497503,0.5909318768861869,0.7500198677489134
0.17179203033447266,0.14057919558901355,0.5183641618193433,0.7160567039263238
0.18051695823669434,0.14544724907025178,0.46555419127693437,0.4868053481238227
0.1907038688659668,0.14994736827674526,0.40015086723348836,0.4500119206493486
0.20148801803588867,0.1537682242067869,0.3301576745954353,0.3820855930041639
0.21120786666870117,0.15693811949689554,0.2657458929117689,0.31698952901086375
0.22337698936462402,0.1599381989678912,0.1839064832666146,0.3000079470995648
0.23182392120361328,0.16234392307199147,0.12612791227482814,0.2405724104100282
0.25049686431884766,0.16514588408735534,-0.0020310771774241106,0.28019610153638685
0.2571690082550049,0.16585345000032603,-0.0464775583426255,0.07075659129706924
0.26850199699401855,0.1664478053672214,-0.11846879548356981,0.059435536689536606
0.2767508029937744,0.1661647790020331,-0.18204475075960094,-0.028302636518828805
0.29074883460998535,0.16460813399349764,-0.27537377226215515,-0.15566450085354733
0.2980318069458008,0.16316469953103746,-0.32445843078155673,-0.14434344624601747
0.31053996086120605,0.16104200179212544,-0.40563885332195954,-0.21226977389120216
0.3241298198699951,0.15750417222727206,-0.49012708737246374,-0.35378295648533786
0.329509973526001,0.15515505339620944,-0.5239195793154053,-0.23491188310626188
0.34258389472961426,0.14909828918118045,-0.6010860262160027,-0.6056764215028987
0.3498349189758301,0.14406041988082927,-0.6423170634835642,-0.5037869300351189
0.3618319034576416,0.1372677871163108,-0.7048955696134535,-0.6792632764518469
0.374924898147583,0.12696562742345777,-0.7737196876283456,-1.030215969285303
0.38600683212280273,0.1210220737545041,-0.825070851122829,-0.594355366895366
0.4097418785095215,0.10078568864354283,-0.9213728848598257,-2.0236385110961277
0.4286630153656006,0.0838607120052843,-0.9871585215211,-1.6924976638258524
0.4427950382232666,0.0709547097526992,-1.0255326731140815,-1.2906002252585105
0.46350884437561035,0.05555807548645734,-1.066767616485154,-1.539663426624186
0.4770998954772949,0.03767080920655869,-1.0845331833693919,-1.7887266279898644
0.4898970127105713,0.026038425597320808,-1.0937668785184826,-1.1632383609237886
0.5013120174407959,0.01369847607511225,-1.0960398800437714,-1.2339949522208558
0.5094280242919922,0.010330462329371843,-1.0946388602986672,-0.3368013745740408
0.5217788219451904,-0.00560392203072774,-1.0860066450036063,-1.593438436009958
0.5388870239257812,-0.01573626590446779,-1.0680893955183972,-1.013234387374005
0.5548388957977295,-0.030934781715077873,-1.032930526758014,-1.519851581061008
0.5764758586883545,-0.051001351006926196,-0.9752489371217651,-2.006656929184832
0.5934579372406006,-0.06823765664689181,-0.9172260035930259,-1.7236305639965614
0.6129698753356934,-0.08725702838754354,-0.8331337999993368,-1.9019371740651727
0.6356189250946045,-0.10307820220156781,-0.736968422072541,-1.5821173814024272
0.6471238136291504,-0.11884277074255443,-0.668364622835046,-1.5764568540986623
0.6550760269165039,-0.1237391268603115,-0.6168386328884753,-0.48963561177570586
0.664132833480835,-0.13126762817431947,-0.5704312287629341,-0.7528501314007979
0.6754150390625,-0.13794705039276264,-0.5012026527146389,-0.6679422218443171
0.685438871383667,-0.14408872251734808,-0.4338146929765806,-0.614167212458544
0.6938729286193848,-0.14793788108390854,-0.3841516181771751,-0.38491585665604566
0.704887866973877,-0.15272102665559031,-0.3078693595049877,-0.4783145571681774
0.715080976486206,-0.15778719859246035,-0.23996695222903458,-0.5066171936870034
0.726841926574707,-0.16172126506857729,-0.16027903237389074,-0.39340664761169375
0.7368199825286865,-0.16407038389963993,-0.09201746991390822,-0.23491188310626465
0.7452878952026367,-0.16565533154469422,-0.033733231570741234,-0.1584947645054291
0.7581708431243896,-0.16596666054640133,0.05485067610451052,-0.031132900170710576
0.7667748928070068,-0.16591005527336367,0.11401648345716735,0.005660527303766316
0.7816548347473145,-0.1644666208109035,0.2141283226901614,0.14434344624601747
0.7885568141937256,-0.1631080942579998,0.26161338402453127,0.13585265529036938
0.8005528450012207,-0.16044764642523007,0.3400253291972028,0.26604478327697245
0.8102610111236572,-0.15741926431771558,0.40392377768898424,0.30283821075144934
0.8215339183807373,-0.15379652684330575,0.47495280077383417,0.3622737474409832
0.8296918869018555,-0.15054172364364063,0.5250441478566833,0.32548031996651183
0.8429298400878906,-0.14468307788424345,0.6024213286865281,0.585864575939718
0.8546810150146484,-0.13913576112655338,0.6689695869196524,0.5547316757690074
0.863318920135498,-0.13322051009411853,0.7145213304467171,0.5915251032434843
0.871147871017456,-0.12775810124598494,0.7551698307251113,0.5462408848133593
0.8813920021057129,-0.11991827093026985,0.8046654071580229,0.7839830315715085
0.8914339542388916,-0.11173880897632886,0.8500081346448345,0.8179461953940994
0.9018888473510742,-0.10228572837904065,0.8936112671389135,0.9453080597288207
0.9120509624481201,-0.09348360842168547,0.9322866533985383,0.8802119957355178
0.9225969314575195,-0.08360598827661486,0.9683921445789307,0.9877620145070611
0.9327888488769531,-0.07361515758546894,0.9992839400141538,0.9990830691145924
0.9429628849029541,-0.06345451107521005,1.0260180609990783,1.0160646510258886
0.9533379077911377,-0.05354858829362062,1.0489443524362818,0.9905922781589429
0.9635050296783447,-0.04384078396766297,1.067097414455257,0.970780432595765
0.9743549823760986,-0.033849953276517054,1.0815206120266767,0.9990830691145918
0.9840660095214844,-0.02465159640789829,1.0904556683508588,0.9198356868618764
0.9944779872894287,-0.014915489445421811,1.0953644098588813,0.9736106962476478
1.0047099590301514,-0.005519014121171259,1.0956234369410067,0.9396475324250552
1.0151078701019287,0.004330303387380526,1.0912444121667306,0.9849317508551784
1.0255908966064453,0.013953199803781695,1.0821216588271136,0.9622896416401169
1.0354249477386475,0.02315155667240046,1.0692902293699074,0.9198356868618763
1.0458729267120361,0.033000874180952246,1.0511888721821465,0.9849317508551787
1.0559940338134766,0.04262377059735341,1.02933707102444,0.9622896416401162
1.0664138793945312,0.052473088105905195,1.0025094433553379,0.9849317508551787
1.0766229629516602,0.062180892431862846,0.9720450391547,0.970780432595765
1.0868628025054932,0.07222832839604641,0.9374958072026016,1.0047435964183566
1.0972349643707275,0.08202104063156054,0.8985055487601313,0.979271223551413
1.1078269481658936,0.09189866077663116,0.8548098058327509,0.9877620145070611
1.1189689636230469,0.10203100465037121,0.8047122303196161,1.0132343873740055
1.1289880275726318,0.11046519033298165,0.7563079249970172,0.8434185682610437
1.14512300491333,0.12229569239785132,0.6722281826651697,1.1830502064869672
1.1534569263458252,0.1290034172528133,0.6267740882550293,0.6707724854961988
1.1671009063720703,0.13735269502586728,0.5489384507420579,0.834927777305397
1.1753129959106445,0.14417363042690456,0.49695452112234445,0.6820935401037287
1.1871919631958008,0.15034360518800885,0.43036670210196676,0.6169974761104285
1.1974079608917236,0.15614564567436837,0.35691112261255703,0.5802040486359517
1.2075819969177246,0.15965517260270293,0.29004606749914547,0.3509526928334561
1.2194719314575195,0.1635326338057822,0.21152222909765694,0.38774612030792743
1.2278828620910645,0.1657402394542507,0.15311409940884585,0.22076056484685025
1.2382299900054932,0.16721197655322972,0.08336766382710464,0.14717370989790202
1.2508108615875244,0.16820256883138865,-0.0042903752215218685,0.09905922781589249
1.261430025100708,0.16859880574265224,-0.06200261762234963,0.03962369112635866
1.2782869338989258,0.1686554110156899,-0.1795508028999621,0.005660527303766316
1.2851459980010986,0.16842898992353927,-0.23872195465446425,-0.02264210921506249
1.2951409816741943,0.16712706864367324,-0.3013316243587305,-0.13019212798660307
1.3070290088653564,0.16523079199691182,-0.38307341590574867,-0.18962766467614245
1.3165819644927979,0.1621458046163597,-0.4440244279312023,-0.3084987380552129
1.325791835784912,0.1594287515105523,-0.5012391578334461,-0.27170531058073877
1.3387069702148438,0.15473051384842704,-0.5785415082117551,-0.46982376621252653
1.3486838340759277,0.14890017072554868,-0.6357083503080618,-0.5830343122878362
1.3581159114837646,0.14176790632280428,-0.6876108894872262,-0.7132264402744393
1.3710298538208008,0.13534320783303055,-0.7544304876600554,-0.6424698489773728
1.3807878494262695,0.1272203511521272,-0.7995920419404589,-0.8122856680903345
1.38966703414917,0.11946542874596862,-0.8421716032221435,-0.775492240615859
1.3996269702911377,0.11120105888247116,-0.8833158773132438,-0.8264369863497462
1.4136848449707031,0.09945546472715797,-0.9355063307883308,-1.174559415531319
1.4191110134124756,0.09399305587902436,-0.9568687088025734,-0.5462408848133606
1.4329488277435303,0.08204934326807937,-0.9997051280822348,-1.1943712610944983
1.4422619342803955,0.07302080221857357,-1.024267994802236,-0.9028541049505803
1.451606035232544,0.06368093216736068,-1.0440311995979121,-0.9339870051212895
1.460453987121582,0.05609582558031505,-1.061766910248205,-0.7585106587045628
1.475160837173462,0.042227533686089835,-1.082530109565193,-1.3868291894225213
1.4830429553985596,0.03481224291815717,-1.0897116149208883,-0.7415290767932666
1.4963488578796387,0.025415767593906617,-1.0956019838141149,-0.9396475324250552
1.5058009624481201,0.012170133703095595,-1.0953852345031052,-1.3245633890811022
1.5112240314483643,0.006594514308886683,-1.0934280265587855,-0.5575619394208913
1.5252909660339355,-0.006000158941991317,-1.0824731968409382,-1.2594673250878
1.537686824798584,-0.01717970036692797,-1.0670313769333706,-1.1179541424936652
1.5493078231811523,-0.02847245233793993,-1.0443137701690104,-1.1292751971011958
1.5545508861541748,-0.034953756100751306,-1.0327343072690867,-0.6481303762811377
1.5647389888763428,-0.04432192878848303,-1.007125291333506,-0.9368172687731726
1.581820011138916,-0.05844494441137769,-0.9561021627660115,-1.4123015622894655
1.5910060405731201,-0.06755839337043996,-0.9260888214110722,-0.9113448959062277
1.6028878688812256,-0.07842660579366953,-0.8757008529860238,-1.0868212423229564
1.614250898361206,-0.08912500239778612,-0.8276456497867762,-1.069839660411659
1.6214799880981445,-0.09682331953090705,-0.7928578945151679,-0.7698317133120927
1.631330966949463,-0.10528580785003631,-0.7445164698112107,-0.8462488319129269
1.6423678398132324,-0.11374829616916558,-0.6870647665042835,-0.8462488319129269
1.654310941696167,-0.12124849484665472,-0.6241447869243808,-0.7500198677489134
1.6672558784484863,-0.12999400953097226,-0.5483357609615486,-0.8745514684317542
1.6770808696746826,-0.13820177412143209,-0.48598412936395585,-0.8207764590459826
1.6851778030395508,-0.14309813023918913,-0.43538384529828394,-0.48963561177570447
1.7005980014801025,-0.1505983289166783,-0.3361425039816197,-0.7500198677489162
1.7096829414367676,-0.15385313211634338,-0.27596176136831335,-0.32548031996650906
1.7209289073944092,-0.15699472476993317,-0.20216206557262895,-0.3141592653589792
1.7281639575958252,-0.1590042119627699,-0.15117748232815295,-0.2009487192836723
1.7382299900054932,-0.16044764642523007,-0.08227562170345785,-0.14434344624601747
1.7472238540649414,-0.16118351497471958,-0.020391703810228427,-0.07358685494895101
1.757694959640503,-0.16124012024775722,0.05174124357404575,-0.005660527303763541
1.7677319049835205,-0.16115521233820074,0.12064444003480915,0.008490790955648087
1.7782678604125977,-0.16058915960782422,0.1923647346833623,0.05660527303765206
1.7884399890899658,-0.1594287515105523,0.25998032685075295,0.11604080972719144
1.7986998558044434,-0.1575324748637909,0.3289753766111773,0.18962766467613967
1.8089330196380615,-0.15523996130576592,0.3954660806260163,0.22925135580249834
1.8191089630126953,-0.15209836865217613,0.4599472951519243,0.3141592653589792
1.8294520378112793,-0.14802278899346502,0.523652749720336,0.4075579658711109
1.8398869037628174,-0.1428434065105197,0.5855799895290695,0.5179382482945333
1.8502600193023682,-0.13715457657023547,0.6446471379179418,0.5688829940284218
1.8603549003601074,-0.13104120708216885,0.6987485177912771,0.6113369488066622
1.8705320358276367,-0.12390894267942446,0.7520938884809072,0.7132264402744393
1.8808159828186035,-0.11612571763674705,0.8019520545463016,0.7783225042677407
1.8909258842468262,-0.10780474250021191,0.8477864473125092,0.8320975136535138
1.9013569355010986,-0.09871959617766846,0.8914564510914199,0.9085146322543453
1.911417007446289,-0.08946463403601204,0.9299947248458849,0.9254962141656414
1.9218759536743164,-0.07989834289264852,0.9660526193518393,0.956629114336352
1.931941032409668,-0.07044526229536031,0.9968681589289704,0.9453080597288207
1.9424009323120117,-0.06065255005984619,1.0246427667578908,0.9792712235514124
1.952845811843872,-0.051057956279963845,1.0479524803633478,0.9594593779882344
1.9629828929901123,-0.04149166513660033,1.066270798258776,0.9566291143363513
1.9733710289001465,-0.032208400358425086,1.0805569191390658,0.9283264778175245
1.98350191116333,-0.022755319761136882,1.0900606968294764,0.9453080597288204
1.9938788414001465,-0.013047515435179232,1.0952103201415917,0.970780432595765
2.0040438175201416,-0.0036227374744098517,1.095743589705736,0.9424777960769379
2.014570951461792,0.006424698489773721,1.0915823043027815,1.0047435964183573
2.027493953704834,0.01819859528160574,1.0799673961529501,1.177389679183202
2.0361428260803223,0.02742525478674333,1.068205388916674,0.922665950513759
2.0465919971466064,0.03755759866048338,1.049795926631762,1.013234387374005
2.0636188983917236,0.05020887718439904,1.0102110856100999,1.2651278523915657
2.070572853088379,0.0589826945052354,0.9906191082488099,0.877381732083636
2.079310894012451,0.06767160391651528,0.9636024518865218,0.8688909411279879
2.090603828430176,0.07910586907012138,0.9239387998474922,1.1434265153606098
2.1001839637756348,0.08810610748310835,0.8867650174023987,0.9000238412986972
2.1127078533172607,0.09888941199678142,0.8334068698223592,1.0783304513673069
2.1251308917999268,0.10921987432615327,0.7768708109960121,1.0330462329371848
2.134349822998047,0.1172295204609813,0.7292432748827214,0.8009646134828032
2.1432759761810303,0.12515425868625285,0.6830915242499485,0.7924738225271551
2.1552958488464355,0.13231482572551606,0.6156994185953805,0.716056703926321
2.1669418811798096,0.1398999323125617,0.5476802269615035,0.7585106587045642
2.1766388416290283,0.14759824944568262,0.4887549063961864,0.7698317133120913
2.1899688243865967,0.1557494087631048,0.40499964881698025,0.8151159317422191
2.19820499420166,0.16019292269656063,0.35174326761128033,0.44435139334558227
2.2093420028686523,0.16412698917267757,0.27837321648126734,0.39340664761169375
2.2155089378356934,0.1672968844627862,0.23697649134963006,0.31698952901086375
2.2278048992156982,0.16995733229555593,0.15368149631623546,0.26604478327697245
2.237205982208252,0.17176870103276085,0.08935355907620224,0.1811368737204916
2.2512588500976562,0.17278759594743862,-0.0012248861165134216,0.10188949146777704
2.260162830352783,0.1728725038569951,-0.06860131064430659,0.008490790955648087
2.2681379318237305,0.17281589858395746,-0.12339717189166972,-0.005660527303763541
2.2811708450317383,0.17227814849009973,-0.20202489362206555,-0.053775009385773065
2.2899060249328613,0.1709762272102337,-0.26960384710424856,-0.13019212798660307
2.2992489337921143,0.1693063716556229,-0.33252726026854235,-0.16698555546107996
2.314399003982544,0.16622138427507077,-0.43014320058752403,-0.3084987380552129
2.3228278160095215,0.16339112062318809,-0.48178826702430066,-0.2830263651882686
2.334108829498291,0.15872118559758164,-0.5514803811949074,-0.46699350256064476
2.3415298461914062,0.15464560593887056,-0.5950841543275309,-0.40755796587110815
2.3557779788970947,0.14740013099005084,-0.6717158000387321,-0.7245474948819719
2.3656458854675293,0.1419094195053984,-0.7178834403808366,-0.5490711484652439
2.374133825302124,0.1346356419200599,-0.7691158485153419,-0.7273777585338509
2.38179087638855,0.12812603552072968,-0.8065236167663956,-0.6509606399330209
2.39815092086792,0.11615402027326586,-0.8771975536326735,-1.1972015247463816
2.4073598384857178,0.10655942649338353,-0.9148358189000276,-0.9594593779882338
2.4168310165405273,0.0995969779097521,-0.9490741320650777,-0.6962448583631431
2.426952838897705,0.09124770013669814,-0.9810889842135576,-0.8349277773053956
2.4373178482055664,0.07967192180049791,-1.011095639359888,-1.1575778336200229
2.4457428455352783,0.0708414992066239,-1.0325658840439564,-0.883042259387401
2.4553089141845703,0.06215258979534402,-1.0527969857933461,-0.8688909411279879
2.4689319133758545,0.05094474573388854,-1.0741661339770925,-1.120784406145548
2.479104995727539,0.040501072858441386,-1.0862968402068383,-1.0443672875447154
2.490726947784424,0.03186876872019916,-1.093983201965256,-0.8632304138242224
2.499663829803467,0.021340187935195532,-1.0960607364094372,-1.052858078500363
2.51086688041687,0.010585186058041285,-1.0936755188907559,-1.0755001877154247
2.528548002243042,-0.0014151318259413483,-1.0812218295947091,-1.2000317883982634
2.5326099395751953,-0.011038028242342518,-1.0733996366021943,-0.9622896416401169
2.545823812484741,-0.022047753848166207,-1.0513389528172545,-1.100972560582369
2.5538008213043213,-0.030651755349889606,-1.0344717357518773,-0.8604001501723398
2.5655908584594727,-0.04084070449666731,-1.00727489717942,-1.0188949146777704
2.573580026626587,-0.049501311271428365,-0.9815468379248463,-0.8660606774761055
2.5879158973693848,-0.06203937924926871,-0.9337617617501597,-1.2538067977840344
2.5973689556121826,-0.07036035438580383,-0.8981075946869472,-0.8320975136535125
2.6091039180755615,-0.08233236963326765,-0.849294489644305,-1.1972015247463816
2.62579083442688,-0.09303076623738424,-0.7754645460733182,-1.069839660411659
2.629776954650879,-0.10109701764524992,-0.7523160187737447,-0.8066251407865682
2.64272403717041,-0.11009725605823689,-0.6874881322474844,-0.9000238412986972
2.651871919631958,-0.11785217846439548,-0.6348118640615058,-0.775492240615859
2.6646969318389893,-0.12622975887396826,-0.5608819380108666,-0.8377580409572774
2.6765568256378174,-0.13372995755145742,-0.4916920227891941,-0.7500198677489162
2.686556816101074,-0.13939048485522282,-0.42673975107390216,-0.56605273037654
2.6952500343322754,-0.1448528937033564,-0.37090438314623486,-0.5462408848133593
2.7065439224243164,-0.1498907630037076,-0.2969134528437072,-0.5037869300351189
2.7139270305633545,-0.15246630292692087,-0.24742685220243507,-0.25755399232132714
2.7244060039520264,-0.15487202703102115,-0.17777854693560963,-0.2405724104100282
2.7346158027648926,-0.15693811949689554,-0.10704278979719796,-0.20660924658743862
2.7448320388793945,-0.1580419223211298,-0.03686606576815906,-0.11038028242342512
