Time (s),Steering Angle (rad),Reference Steering Rate (rad/s),Measured Steering Rate (rad/s)
1.8425650596618652,0.0007075659129706742,0.044071387694919056,0.07075659129706742
1.849472999572754,0.0007075659129706742,0.04357555537249544,0.0
1.8638651371002197,0.0009056843686024629,0.0427050525353777,0.019811845563178877
1.8729541301727295,0.0011604080972719055,0.042115560196092944,0.02547237286694426
1.8822062015533447,0.0015000397354978292,0.04154826292883291,0.03396316382259237
1.8923699855804443,0.0018679740102425797,0.04084977511734245,0.036793427474475046
1.9013440608978271,0.0022925135580249842,0.040275125221465445,0.04245395477824045
1.9129290580749512,0.0028868689249203507,0.03953210587395058,0.05943553668953665
1.9219269752502441,0.003311408472702755,0.03896310971394494,0.04245395477824043
1.9322330951690674,0.0038491585665604675,0.03828851101303338,0.05377500938577124
1.942641019821167,0.004358606023899353,0.037616913772793546,0.05094474573388856
1.9538321495056152,0.004924658754275892,0.03690209429039101,0.05660527303765388
1.9632320404052734,0.005547316757690085,0.03628136015906388,0.062265800341419326
1.9733331203460693,0.006141672124585451,0.03562434954267543,0.059435536689536606
1.9849371910095215,0.006651119581924337,0.03486785166972016,0.0509447457338886
1.994426965713501,0.0069624485836314335,0.0342476921023306,0.03113290017070962
2.004625082015991,0.007302080221857357,0.03357931953599146,0.033963163822592346
2.0152699947357178,0.007641711860083281,0.03288091947513676,0.03396316382259243
2.0251951217651367,0.00792473822527155,0.032228572666678126,0.028302636518826897
2.0355780124664307,0.008179461953940993,0.031543667213186896,0.02547237286694426
2.045861005783081,0.008320975136535128,0.030874652049554203,0.014151318259413535
2.056089162826538,0.008547396228685744,0.030188348596247888,0.022642109215061622
2.0664360523223877,0.00885872523039284,0.02950316563991112,0.031132900170709535
2.076923131942749,0.00914175159558111,0.02880704212975368,0.02830263651882707
2.0869970321655273,0.009453080597288208,0.028137091002697134,0.03113290017070971
2.0970420837402344,0.009849317508551784,0.027467538559488587,0.03962369112635762
2.107527017593384,0.010273857056334188,0.026768295349518252,0.04245395477824043
2.117802143096924,0.010556883421522459,0.026091398761028953,0.02830263651882707
2.129216194152832,0.010924817696267209,0.025317683591490107,0.036793427474474984
2.1394081115722656,0.011236146697974306,0.024634318564281166,0.03113290017070971
2.149193048477173,0.011604080972719056,0.023976812689855305,0.036793427474474984
2.163825035095215,0.011915409974426153,0.02300715362074049,0.03113290017070971
2.1739680767059326,0.012141831066576769,0.022348816023744368,0.022642109215061622
2.1805100440979004,0.012339949522208557,0.02186780665333743,0.01981184556317881
2.1929571628570557,0.01267958116043448,0.02102799503590632,0.033963163822592346
2.2013330459594727,0.012962607525622751,0.020460978938902284,0.02830263651882707
2.2140471935272217,0.013330541800367501,0.019623990261476574,0.036793427474474984
2.226402997970581,0.013585265529036944,0.018813090518859394,0.02547237286694426
2.2349631786346436,0.013726778711631079,0.018181402008487516,0.014151318259413535
2.246134042739868,0.013953199803781695,0.01742303378465656,0.022642109215061622
2.2539260387420654,0.014207923532451138,0.016902911557054572,0.02547237286694426
2.2637951374053955,0.01446264726112058,0.016219885179603218,0.02547237286694426
2.2741711139678955,0.014660765716752368,0.015513800166527276,0.01981184556317881
2.284262180328369,0.014943792081940637,0.014824660286402716,0.028302636518826897
2.2946200370788574,0.015255121083647735,0.014117630962023184,0.03113290017070971
2.3046751022338867,0.015453239539279524,0.013430650613932954,0.019811845563178984
2.3150711059570312,0.015566450085354832,0.012719682933165735,0.011321054607530724
2.3252670764923096,0.015707963267948967,0.01202199575486823,0.014151318259413535
2.3355979919433594,0.01587777908706193,0.011314293861800584,0.016981581911296173
2.345900058746338,0.015990989633137238,0.010619139640881991,0.011321054607530898
2.356131076812744,0.01607589754269372,0.009907283648646688,0.008490790955648087
2.366441011428833,0.0161608054522502,0.009199832703365888,0.008490790955648087
2.3767731189727783,0.016302318634844333,0.008490947876965138,0.014151318259413362
2.3870761394500732,0.01633062127136316,0.007783163191837506,0.002830263651882811
2.3970911502838135,0.016358923907881986,0.007094419287340277,0.002830263651882464
2.407567024230957,0.016443831817438467,0.006374807492211386,0.008490790955648087
2.417600154876709,0.016500437090476123,0.0056846975615408146,0.005660527303765622
2.4289941787719727,0.016585345000032604,0.004901210940218478,0.008490790955648087
2.438244104385376,0.016641950273070256,0.004264663900334461,0.005660527303765275
2.4483699798583984,0.016840068728702046,0.0035678937859742904,0.019811845563178984
2.459036111831665,0.016924976638258527,0.002833457292415003,0.008490790955648087
2.4689509868621826,0.016924976638258527,0.002150539160502081,0.0
2.4794230461120605,0.016924976638258527,0.001429792623559182,0.0
2.489469051361084,0.01698158191129618,0.0007375697777697014,0.005660527303765275
2.5000970363616943,0.017009884547815008,5.648269592489205e-06,0.002830263651882811
2.5103330612182617,0.017038187184333833,-0.000699017881970935,0.002830263651882464
2.5204529762268066,0.017038187184333833,-0.0013952326813809796,0.0
2.5308330059051514,0.017038187184333833,-0.00211040134063741,0.0
2.5410661697387695,0.017038187184333833,-0.0028150900974105793,0.0
2.55145001411438,0.017038187184333833,-0.0035300505298472623,0.0
2.561583995819092,0.017038187184333833,-0.004227518309565206,0.0
2.5719289779663086,0.017038187184333833,-0.00493952796425081,0.0
2.5865061283111572,0.017038187184333833,-0.005888604277423909,0.0
2.5926949977874756,0.017038187184333833,-0.006366972293888038,0.0
2.603224992752075,0.017038187184333833,-0.0070911259075780945,0.0
2.618232011795044,0.017038187184333833,-0.008078035696911338,0.0
2.6263320446014404,0.017038187184333833,-0.008677226574046513,0.0
2.6396970748901367,0.017038187184333833,-0.009586002722314723,0.0
2.647109031677246,0.017038187184333833,-0.010103232050361436,0.0
2.660788059234619,0.017038187184333833,-0.011040261918631729,0.0
2.6708271503448486,0.017038187184333833,-0.011677561114454886,0.0
2.6826171875,0.017038187184333833,-0.01253471051518099,0.0
2.6949520111083984,0.017038187184333833,-0.013358083079040574,0.0
2.7058591842651367,0.017038187184333833,-0.014075441634123498,0.0
2.718163013458252,0.017038187184333833,-0.014962621531630707,0.0
2.7208621501922607,0.017038187184333833,-0.015130774352635209,0.0
2.7345681190490723,0.017038187184333833,-0.016028682895572896,0.0
2.744441032409668,0.017038187184333833,-0.016754698943076202,0.0
2.7546520233154297,0.017038187184333833,-0.01741979165338159,0.0
2.7669570446014404,0.017038187184333833,-0.018284568605713824,0.0
2.7802770137786865,0.017038187184333833,-0.019188656881747704,0.0
2.7879621982574463,0.017038187184333833,-0.01970963299603201,0.0
2.8002591133117676,0.017038187184333833,-0.02052146605528902,0.0
2.811333179473877,0.017009884547815008,-0.021153447324514303,-0.002830263651882464
2.819221019744873,0.01698158191129618,-0.02182328572694912,-0.002830263651882811
2.8318920135498047,0.0168966740017397,-0.02252780592968329,-0.008490790955648087
2.8435921669006348,0.016726858182626737,-0.02344390773746388,-0.016981581911296173
2.8525550365448,0.016585345000032604,-0.02406875243628675,-0.014151318259413362
2.8649840354919434,0.016443831817438467,-0.02490133381432464,-0.014151318259413709
2.874796152114868,0.016274015998325505,-0.025559724679567814,-0.016981581911296173
2.8874411582946777,0.016019292269656062,-0.026405591809486838,-0.02547237286694426
2.898231029510498,0.01573626590446779,-0.027096419270001573,-0.02830263651882707
2.9086151123046875,0.015453239539279524,-0.027818803964953547,-0.028302636518826724
2.918544054031372,0.015028699991497118,-0.028465827171271958,-0.042453954778240606
2.9280970096588135,0.014717370989790023,-0.02911430532441329,-0.031132900170709535
2.9395081996917725,0.014434344624601752,-0.029871184131456435,-0.02830263651882707
2.951353073120117,0.01417962089593231,-0.030654604406026936,-0.02547237286694426
2.965620994567871,0.013839989257706386,-0.031568212675725314,-0.033963163822592346
2.9723830223083496,0.013670173438593424,-0.032043181543321086,-0.016981581911296173
2.9845070838928223,0.013273936527329847,-0.03282272578681004,-0.039623691126357795
2.995495080947876,0.012934304889103923,-0.03356234505995066,-0.033963163822592346
3.004991054534912,0.012707883796953309,-0.03418429839267425,-0.02264210921506145
3.015608072280884,0.012566370614359173,-0.03486118917034531,-0.014151318259413535
3.0249671936035156,0.012396554795246211,-0.035468129209550246,-0.016981581911296173
3.036241054534912,0.012141831066576769,-0.03620539998010886,-0.02547237286694426
3.0475142002105713,0.011830502064869672,-0.03692363041627668,-0.03113290017070971
3.0566000938415527,0.011519173063162575,-0.037530752657914265,-0.03113290017070971
3.0666069984436035,0.011038028242342518,-0.038189198441998896,-0.04811448208200571
3.074651002883911,0.010585186058041285,-0.03870912142065361,-0.045284218430123244
3.0883400440216064,0.010132343873740055,-0.0395878132103436,-0.04528421843012307
3.0982441902160645,0.009821014872032957,-0.04022408538735101,-0.03113290017070971
3.1108591556549072,0.009566291143363515,-0.04099827156044123,-0.02547237286694426
3.119767189025879,0.009254962141656418,-0.041599248731503696,-0.03113290017070971
3.131920099258423,0.008915330503430494,-0.042325162783020696,-0.033963163822592346
3.143710136413574,0.008377580409572783,-0.04311931717724542,-0.05377500938577116
3.1538360118865967,0.00792473822527155,-0.04370930302306901,-0.045284218430123244
3.1627039909362793,0.007415290767932665,-0.0442854410792429,-0.05094474573388852
3.174612045288086,0.006736027491480818,-0.0450676328068087,-0.06792632764518469
3.185148000717163,0.006254882670660759,-0.04572786164888157,-0.04811448208200588
3.194751024246216,0.005858645759397182,-0.046328433378060446,-0.039623691126357705
3.2094311714172363,0.005462408848133604,-0.047208447635192156,-0.039623691126357795
3.217297077178955,0.005151079846426508,-0.04771213031156843,-0.03113290017070962
3.2275350093841553,0.004783145571681757,-0.048364390057274546,-0.03679342747447507
3.2374210357666016,0.004330303387380526,-0.04897397710548569,-0.04528421843012315
3.251909017562866,0.0037642506570039866,-0.04986449655860846,-0.056605273037653926
3.2585480213165283,0.003254803199665101,-0.05027232976871858,-0.05094474573388856
3.270750045776367,0.0027736583788450426,-0.05099982498447003,-0.04811448208200584
3.2800710201263428,0.0021793030119496765,-0.05156877871873712,-0.059435536689536606
3.289915084838867,0.0017830661006860988,-0.052136993345783846,-0.039623691126357774
3.3001201152801514,0.0013302239163848675,-0.052798049522242846,-0.04528421843012313
3.3089680671691895,0.0008207764590459821,-0.053288980043326446,-0.05094474573388854
3.321343183517456,0.00011321054607530787,-0.05406205895032356,-0.07075659129706742
3.3329050540924072,-0.0006226580034141933,-0.05476569016329398,-0.07358685494895012
3.3426191806793213,-0.0012170133703095596,-0.05534385095869342,-0.059435536689536626
3.3533761501312256,-0.001754763464167272,-0.05598261202919698,-0.05377500938577124
3.3609471321105957,-0.0021226977389120225,-0.0564304742390606,-0.036793427474475046
3.371744155883789,-0.002603842559732081,-0.057067096126908634,-0.04811448208200584
3.3879401683807373,-0.0031415926535897933,-0.057877034074018674,-0.05377500938577124
3.3966012001037598,-0.0037925532935228134,-0.05851192504333184,-0.065096063993302
3.4078080654144287,-0.004556724479531141,-0.05915914926645207,-0.07641711860083278
3.417462110519409,-0.00532089566553947,-0.059730060804390854,-0.07641711860083286
3.4299991130828857,-0.0061699747611042785,-0.06045263876302418,-0.08490790955648087
3.440836191177368,-0.006707724854961991,-0.06107354738269947,-0.05377500938577124
3.450467109680176,-0.007075659129706742,-0.06157625828839654,-0.03679342747447507
3.460891008377075,-0.007500198677489146,-0.06220368341685423,-0.04245395477824043
3.4705710411071777,-0.007981343498309205,-0.06272070728963526,-0.04811448208200588
3.480987071990967,-0.008773817320836359,-0.06335039898442893,-0.07924738225271541
3.495197057723999,-0.009679501689438822,-0.06414563553898964,-0.0905684368602463
3.5055670738220215,-0.01044367287544715,-0.06468338584301332,-0.07641711860083278
3.5171120166778564,-0.011179541424936651,-0.06535184777285072,-0.07358685494895013
3.5273101329803467,-0.011717291518794365,-0.06589612167605653,-0.05377500938577133
3.535865068435669,-0.012085225793539114,-0.06639593506792302,-0.036793427474474984
3.544584035873413,-0.012481462704802692,-0.06687345351205065,-0.039623691126357795
3.558619976043701,-0.013019212798660404,-0.06758445846801464,-0.05377500938577116
3.565977096557617,-0.013585265529036944,-0.06802365979684828,-0.05660527303765397
3.5802769660949707,-0.014434344624601752,-0.06880296914862417,-0.08490790955648087
3.5889101028442383,-0.015340028993204215,-0.06926518964399266,-0.0905684368602463
3.599544048309326,-0.01604759490617489,-0.06983084472827872,-0.0707565912970675
3.6077370643615723,-0.016585345000032604,-0.07026566239332889,-0.05377500938577133
3.617871046066284,-0.017208003003446794,-0.07079266949986857,-0.06226580034141907
3.63126802444458,-0.01800047682597395,-0.07148412672243194,-0.07924738225271559
3.6422650814056396,-0.018877858558057587,-0.07206373917105474,-0.08773817320836368
3.6505820751190186,-0.019528819197990606,-0.07250413902386144,-0.06509606399330188
3.660933017730713,-0.02034959565703659,-0.07303761873521691,-0.0820776459045984
3.6725502014160156,-0.02128358266215788,-0.07362357339382292,-0.09339870051212895
3.683509111404419,-0.02210435912120386,-0.07418935549388628,-0.08207764590459805
3.6912920475006104,-0.022755319761136882,-0.07458285790176054,-0.06509606399330223
3.7040090560913086,-0.023462885674107554,-0.07520806304718457,-0.07075659129706716
3.7132279872894287,-0.024198754223597057,-0.07568255582411242,-0.07358685494895031
3.7243480682373047,-0.024934622773086557,-0.07622806657180345,-0.07358685494894997
3.736607074737549,-0.025727096595613713,-0.07683867109722022,-0.07924738225271559
3.7455151081085205,-0.026462965145103212,-0.07727505435500155,-0.07358685494894997
3.754357099533081,-0.027255438967630368,-0.07770619020326346,-0.07924738225271559
3.764439105987549,-0.028047912790157524,-0.07819473007340698,-0.07924738225271559
3.774790048599243,-0.02884038661268468,-0.07869265426290471,-0.07924738225271559
3.7854621410369873,-0.02966116307173066,-0.07920199448742168,-0.08207764590459805
3.795356035232544,-0.030481939530776644,-0.07967208931670776,-0.0820776459045984
3.805490016937256,-0.03135932126286028,-0.08014977131825042,-0.08773817320836333
3.8160080909729004,-0.03209518981234978,-0.08064186493222417,-0.07358685494895031
3.8279800415039062,-0.03285936099835811,-0.08119774065100155,-0.07641711860083278
3.8363990783691406,-0.03356692691132878,-0.08158643658565055,-0.07075659129706716
3.8471360206604004,-0.03441600600689359,-0.08207822461737285,-0.08490790955648087
3.856948137283325,-0.03523678246593957,-0.08252458225750754,-0.0820776459045984
3.8674240112304688,-0.03619907210757969,-0.0829973761767073,-0.09622896416401142
3.8786461353302,-0.03718966438573863,-0.08349977229902346,-0.09905922781589457
3.8893630504608154,-0.03818025666389758,-0.08397594117119196,-0.09905922781589457
3.9005470275878906,-0.03905763839598121,-0.0844628399924132,-0.08773817320836333
3.9084692001342773,-0.039708599035914234,-0.08481581656476057,-0.06509606399330223
3.918776035308838,-0.040416164948884906,-0.08526368438217241,-0.07075659129706716
3.9349310398101807,-0.041435059863562676,-0.08595741406839903,-0.10188949146777704
3.9422061443328857,-0.04217092841305218,-0.08626771465879088,-0.07358685494895031
3.9529190063476562,-0.043076612781654644,-0.08672124704714575,-0.09056843686024649
3.9638240337371826,-0.04375587605810649,-0.08717331209777462,-0.06792632764518469
3.9759891033172607,-0.04483137624582192,-0.08768360200336342,-0.10755001877154266
3.9882571697235107,-0.045680455341386726,-0.08817921786414698,-0.08490790955648087
3.9983131885528564,-0.04664274498302684,-0.0885884645594497,-0.09622896416401142
4.007940053939819,-0.04740691616903517,-0.08898596540277313,-0.07641711860083278
4.016162157058716,-0.048171087355043496,-0.08931564741282892,-0.07641711860083278
4.026595115661621,-0.04907677172364596,-0.08973027785338272,-0.09056843686024649
4.036570072174072,-0.050039061365286075,-0.09012305634027694,-0.09622896416401142
4.04693603515625,-0.05102965364344502,-0.09052756123085078,-0.09905922781589457
4.057090997695923,-0.051935338012047486,-0.09092002637372307,-0.09056843686024649
4.067460060119629,-0.052784417107612294,-0.0913169904216126,-0.08490790955648087
4.077607154846191,-0.05357689093013945,-0.09170135383538627,-0.07924738225271524
4.088025093078613,-0.054425970025704255,-0.09209260066009127,-0.08490790955648087
4.098312139511108,-0.055275049121269064,-0.09247468818585212,-0.08490790955648087
4.108798027038574,-0.056293944035946834,-0.09286008633280207,-0.10188949146777704
4.118873119354248,-0.057227931041068124,-0.09322712841818154,-0.09339870051212895
4.129122018814087,-0.05807701013663293,-0.09359664943750129,-0.08490790955648087
4.139782190322876,-0.05886948395916009,-0.09397644049245853,-0.07924738225271594
4.149797201156616,-0.0597185630547249,-0.09432424878199007,-0.08490790955648087
4.160201072692871,-0.060850668515477976,-0.09469215831993012,-0.11321054607530759
4.172584056854248,-0.062265800341419326,-0.09511268087883828,-0.141513182594135
4.1825220584869385,-0.06331299789261592,-0.09545650454905481,-0.1047197551196595
4.195500135421753,-0.06424698489773721,-0.09585269384566196,-0.09339870051212895
4.20561408996582,-0.06515266926633968,-0.09616488973732815,-0.09056843686024718
4.218451976776123,-0.06645459054620571,-0.09662674718883313,-0.13019212798660307
4.227214097976685,-0.06747348546088348,-0.09693124871990817,-0.10188949146777704
4.234917163848877,-0.06832256455644829,-0.0971784533384135,-0.08490790955648087
4.248959064483643,-0.06934145947112606,-0.09760160626397957,-0.10188949146777704
4.258246183395386,-0.07007732802061557,-0.09791030068456265,-0.07358685494895101
4.27055811882019,-0.07109622293529334,-0.09828357914603499,-0.10188949146777704
4.2804059982299805,-0.0722000257595276,-0.09855322903438214,-0.11038028242342512
4.288443088531494,-0.07321892067420536,-0.09882237109907975,-0.10188949146777704
4.301398038864136,-0.0744076314079961,-0.0992100124621065,-0.11887107337907321
4.311885118484497,-0.07534161841311739,-0.0995147576631137,-0.09339870051212895
4.321930170059204,-0.07624730278171984,-0.09979936022706225,-0.0905684368602458
4.330499172210693,-0.07695486869469052,-0.10002347115584066,-0.07075659129706785
4.339729070663452,-0.07794546097284946,-0.10030374930142578,-0.09905922781589388
4.350886106491089,-0.0790209611605649,-0.10061097903157384,-0.10755001877154335
4.360476970672607,-0.07992664552916735,-0.1008714287736747,-0.0905684368602458
4.373627185821533,-0.08077572462473216,-0.10121689415706345,-0.08490790955648087
4.383292198181152,-0.08187952744896641,-0.10147547667969249,-0.11038028242342512
4.393025159835815,-0.0830116329097195,-0.10172713957333863,-0.11321054607530828
4.406090974807739,-0.08437015946262319,-0.10205833556615451,-0.13585265529036938
4.414192199707031,-0.085219238558188,-0.102257246227844,-0.08490790955648087
4.428261995315552,-0.08663437038412934,-0.10259646840984656,-0.1415131825941343
4.436083078384399,-0.08756835738925063,-0.10278975754113852,-0.09339870051212895
4.449479103088379,-0.0890117918517108,-0.10310982450356217,-0.14434344624601747
4.4590020179748535,-0.08997408149335093,-0.1033307349057998,-0.09622896416401211
