Time (s)	,tdelta (deg)	,Angular velocity (deg/s)
0.007969856262207031,-0.9389187630258837,9.99995985758168
0.01676797866821289,-0.9340538989687549,9.99995985758168
0.02720189094543457,-0.9113512000354864,9.99995985758168
0.035429954528808594,-0.8643241808165735,9.99995985758168
0.0426487922668457,-0.8010809480738974,9.99995985758168
0.052478790283203125,-0.6989188028741897,9.99995985758168
0.0626378059387207,-0.6113512498458691,9.99995985758168
0.0724179744720459,-0.5189188327604194,9.99995985758168
0.08240580558776855,-0.423243172970217,9.99995985758168
0.09108901023864746,-0.3502702121132831,9.99995985758168
0.10106182098388672,-0.24648644556119917,9.99995985758168
0.11107683181762695,-0.141081057656739,9.99995985758168
0.12105798721313477,-0.04540539786653669,9.99995985758168
0.130814790725708,0.03729729110465514,9.99995985758168
0.13735389709472656,0.09891890249495494,9.99995985758168
0.14500999450683594,0.17837834876139416,9.99995985758168
0.15470099449157715,0.2902702220753596,9.99995985758168
0.16360688209533691,0.36486480428466983,9.99995985758168
0.17246794700622559,0.4443242505511091,9.99995985758168
0.18159699440002441,0.5335134249318062,9.99995985758168
0.19093084335327148,0.6210809779601268,9.99995985758168
0.20029687881469727,0.715135016397953,9.99995985758168
0.20986580848693848,0.8156755402452842,9.99995985758168
0.21921396255493164,0.9081079573307338,9.99995985758168
0.2283768653869629,0.9859457822447967,9.99995985758168
0.2384319305419922,1.0913511701492569,9.99995985758168
0.24734282493591309,1.1708106164156962,9.99995985758168
0.2573869228363037,1.279459247024909,9.99995985758168
0.267488956451416,1.3654051787008534,9.99995985758168
0.27585792541503906,1.457837595786303,9.99995985758168
0.28536391258239746,1.5470267701670002,9.99995985758168
0.295058012008667,1.6281078377858158,9.99995985758168
0.3044168949127197,1.7156753908141364,9.99995985758168
0.3145148754119873,1.8113510506043387,9.99995985758168
0.3239569664001465,1.8989186036326595,9.99995985758168
0.33412790298461914,1.9881077780133567,9.99995985758168
0.342864990234375,2.072432088336925,9.99995985758168
0.35313987731933594,2.17135099083188,9.99995985758168
0.3631319999694824,2.2654050292697057,9.99995985758168
0.37415289878845215,2.380540145288424,9.99995985758168
0.3843419551849365,2.4778374264310026,9.99995985758168
0.39417600631713867,2.578377950278334,9.99995985758168
0.4034140110015869,2.6659455033066544,9.99995985758168
0.4127018451690674,2.763242784449233,9.99995985758168
0.4229719638824463,2.8621616869441877,9.99995985758168
0.4315760135650635,2.9481076186201323,9.99995985758168
0.442302942276001,3.0697292200483557,9.99995985758168
0.45204687118530273,3.175134607952816,9.99995985758168
0.4610869884490967,3.2659454036858895,9.99995985758168
0.471376895904541,3.363242684828468,9.99995985758168
0.48071980476379395,3.4718913154376807,9.99995985758168
0.48960089683532715,3.5545940044088726,9.99995985758168
0.49852895736694336,3.629188586618183,9.99995985758168
0.5087049007415771,3.7135128969417512,9.99995985758168
0.5183849334716797,3.8043236926748243,9.99995985758168
0.5277979373931885,3.8902696243507684,9.99995985758168
0.5375568866729736,3.979458798731466,9.99995985758168
0.5475068092346191,4.08324256528355,9.99995985758168
0.5564219951629639,4.169188496959494,9.99995985758168
0.5666379928588867,4.256756049987815,9.99995985758168
0.5744068622589111,4.3216209040828675,9.99995985758168
0.5833108425140381,4.420539806577823,9.99995985758168
0.5922420024871826,4.514593845015648,9.99995985758168
0.60223388671875,4.600539776691593,9.99995985758168
0.6112909317016602,4.68972895107229,9.99995985758168
0.6200590133666992,4.783782989510116,9.99995985758168
0.6286928653717041,4.86972892118606,9.99995985758168
0.6374788284301758,4.947566746100123,9.99995985758168
0.6467819213867188,5.039999163185573,9.99995985758168
0.6565477848052979,5.135674822975775,9.99995985758168
0.6664438247680664,5.236215346823106,9.99995985758168
0.6759159564971924,5.346485598784696,9.99995985758168
0.6855130195617676,5.435674773165393,9.99995985758168
0.6955218315124512,5.529728811603219,9.99995985758168
0.7054989337921143,5.636755820860055,9.99995985758168
0.7164719104766846,5.737296344707387,9.99995985758168
0.72599196434021,5.821620655030954,9.99995985758168
0.736130952835083,5.935134149697296,9.99995985758168
0.7461287975311279,6.019458460020864,9.99995985758168
0.755795955657959,6.105404391696809,9.99995985758168
0.7648298740386963,6.183242216610871,9.99995985758168
0.7748639583587646,6.295134089924837,9.99995985758168
0.7851858139038086,6.40378272053405,9.99995985758168
0.7941398620605469,6.475134060038608,9.99995985758168
0.804095983505249,6.587025933352573,9.99995985758168
0.8141260147094727,6.684323214495151,9.99995985758168
0.824199914932251,6.779998874285354,9.99995985758168
0.8336188793182373,6.872431291370804,9.99995985758168
0.8445549011230469,6.974593436570512,9.99995985758168
0.8544998168945312,7.070269096360714,9.99995985758168
0.8639278411865234,7.1594582707414105,9.99995985758168
0.872931957244873,7.2470258237697305,9.99995985758168
0.8831918239593506,7.350809590321815,9.99995985758168
0.8914458751678467,7.431890657940632,9.99995985758168
0.9004819393157959,7.524323075026081,9.99995985758168
0.9094038009643555,7.616755492111531,9.99995985758168
0.9189198017120361,7.707566287844603,9.99995985758168
0.927771806716919,7.796755462225302,9.99995985758168
0.9363529682159424,7.881079772548869,9.99995985758168
0.9451358318328857,7.973512189634318,9.99995985758168
0.9553048610687256,8.059458121310264,9.99995985758168
0.9644739627838135,8.163241887862347,9.99995985758168
0.9743459224700928,8.260539169004925,9.99995985758168
0.9837348461151123,8.356214828795128,9.99995985758168
0.9941198825836182,8.445404003175824,9.99995985758168
1.0029418468475342,8.529728313499392,9.99995985758168
1.013225793838501,8.630268837346724,9.99995985758168
1.0232999324798584,8.727566118489303,9.99995985758168
1.033031940460205,8.818376914222377,9.99995985758168
1.042490005493164,8.907566088603073,9.99995985758168
1.0514118671417236,8.996755262983772,9.99995985758168
1.0606839656829834,9.087566058716844,9.99995985758168
1.070626974105835,9.179998475802293,9.99995985758168
1.080704927444458,9.275674135592496,9.99995985758168
1.0907080173492432,9.377836280792204,9.99995985758168
1.1004419326782227,9.463782212468148,9.99995985758168
1.110374927520752,9.57243084307736,9.99995985758168
1.1206037998199463,9.674592988277068,9.99995985758168
1.130793809890747,9.767025405362517,9.99995985758168
1.1394338607788086,9.848106472981334,9.99995985758168
1.148360013961792,9.959998346295299,9.99995985758168
1.158815860748291,10.045944277971245,9.99995985758168
1.167604923248291,10.130268588294811,9.99995985758168
1.1768620014190674,10.22270100538026,9.99995985758168
1.1853868961334229,10.311890179760958,9.99995985758168
1.194868803024292,10.388106383322645,9.99995985758168
1.2049639225006104,10.501619877988986,9.99995985758168
1.2148358821868896,10.600538780483943,9.99995985758168
1.22471284866333,10.692971197569392,9.99995985758168
1.2343838214874268,10.780538750597712,9.99995985758168
1.2441699504852295,10.881079274445042,9.99995985758168
1.2544479370117188,10.981619798292375,9.99995985758168
1.262718915939331,11.04486303103505,9.99995985758168
1.2693469524383545,11.121079234596737,9.99995985758168
1.2786638736724854,11.21675489438694,9.99995985758168
1.2880349159240723,11.31243055417714,9.99995985758168
1.2981548309326172,11.403241349910216,9.99995985758168
1.3076419830322266,11.505403495109922,9.99995985758168
1.3172168731689453,11.596214290842997,9.99995985758168
1.3270819187164307,11.685403465223693,9.99995985758168
1.3357229232788086,11.76161966878538,9.99995985758168
1.3461658954620361,11.868646678042216,9.99995985758168
1.355470895767212,11.949727745661031,9.99995985758168
1.3650648593902588,12.058376376270244,9.99995985758168
1.3739778995513916,12.141079065241437,9.99995985758168
1.383685827255249,12.236754725031638,9.99995985758168
1.3934738636016846,12.334052006174216,9.99995985758168
1.4034538269042969,12.426484423259666,9.99995985758168
1.4133257865905762,12.528646568459374,9.99995985758168
1.4233629703521729,12.621078985544825,9.99995985758168
1.433215856552124,12.70702491722077,9.99995985758168
1.442957878112793,12.818916790534734,9.99995985758168
1.4525539875030518,12.914592450324937,9.99995985758168
1.4629838466644287,12.994051896591376,9.99995985758168
1.4729249477386475,13.10270052720059,9.99995985758168
1.4836528301239014,13.217835643219306,9.99995985758168
1.492414951324463,13.287565361371488,9.99995985758168
1.5015218257904053,13.381619399809313,9.99995985758168
1.511340856552124,13.477295059599516,9.99995985758168
1.521669864654541,13.57621396209447,9.99995985758168
1.5319688320159912,13.671889621884674,9.99995985758168
1.5412278175354004,13.764322038970123,9.99995985758168
1.5503737926483154,13.858376077407948,9.99995985758168
1.5604188442230225,13.957294979902905,9.99995985758168
1.5706579685211182,14.05134901834073,9.99995985758168
1.5793628692626953,14.14378143542618,9.99995985758168
1.5883378982543945,14.232970609806877,9.99995985758168
1.5971159934997559,14.31080843472094,9.99995985758168
1.6072700023651123,14.412970579920646,9.99995985758168
1.6161258220672607,14.502159754301344,9.99995985758168
1.6251678466796875,14.588105685977288,9.99995985758168
1.6350669860839844,14.691889452529374,9.99995985758168
1.643899917602539,14.7859434909672,9.99995985758168
1.6525788307189941,14.868646179938391,9.99995985758168
1.6628868579864502,14.95297049026196,9.99995985758168
1.671618938446045,15.045402907347407,9.99995985758168
1.6806848049163818,15.137835324432858,9.99995985758168
1.690518856048584,15.227024498813556,9.99995985758168
1.6993498802185059,15.319456915899003,9.99995985758168
1.709150791168213,15.418375818393962,9.99995985758168
1.7189068794250488,15.505943371422282,9.99995985758168
1.7287869453430176,15.60324065256486,9.99995985758168
1.7375848293304443,15.685943341536051,9.99995985758168
1.7470769882202148,15.775132515916747,9.99995985758168
1.7563908100128174,15.865943311649822,9.99995985758168
1.7670178413391113,15.953510864678144,9.99995985758168
1.7758018970489502,16.05080814582072,9.99995985758168
1.7859559059143066,16.159456776429934,9.99995985758168
1.795738935470581,16.24864595081063,9.99995985758168
1.8052120208740234,16.352429717362714,9.99995985758168
1.815476894378662,16.459456726619553,9.99995985758168
1.8246469497680664,16.53891617288599,9.99995985758168
1.8334448337554932,16.626483725914312,9.99995985758168
1.8432419300079346,16.714051278942634,9.99995985758168
1.8530168533325195,16.814591802789963,9.99995985758168
1.863210916519165,16.905402598523036,9.99995985758168
1.8727009296417236,16.99621339425611,9.99995985758168
1.8792569637298584,17.059456626998784,9.99995985758168
1.8880128860473633,17.164862014903246,9.99995985758168
1.8975729942321777,17.24756470387444,9.99995985758168
1.9076309204101562,17.349726849074145,9.99995985758168
1.917114019393921,17.44053764480722,9.99995985758168
1.927231788635254,17.53134844054029,9.99995985758168
1.936919927597046,17.63351058574,9.99995985758168
1.9469578266143799,17.72594300282545,9.99995985758168
1.9559698104858398,17.8183754199109,9.99995985758168
1.9649558067321777,17.912429458348726,9.99995985758168
1.9746019840240479,17.995132147319918,9.99995985758168
1.981597900390625,18.071348350881603,9.99995985758168
1.9913208484649658,18.162159146614677,9.99995985758168
2.0009078979492188,18.26269967046201,9.99995985758168
2.0106799602508545,18.36161857295696,9.99995985758168
2.020617961883545,18.444321261928156,9.99995985758168
2.0302278995513916,18.546483407127862,9.99995985758168
2.0401039123535156,18.645402309622817,9.99995985758168
2.0494589805603027,18.734591484003516,9.99995985758168
2.059954881668091,18.841618493260352,9.99995985758168
2.06915283203125,18.916213075469663,9.99995985758168
2.079540967941284,19.015131977964618,9.99995985758168
2.0889430046081543,19.105942773697688,9.99995985758168
2.0993947982788086,19.209726540249775,9.99995985758168
2.1092069149017334,19.321618413563737,9.99995985758168
2.120100975036621,19.423780558763447,9.99995985758168
2.1293489933013916,19.51134811179177,9.99995985758168
2.139488935470581,19.61675349969623,9.99995985758168
2.1479458808898926,19.701077810019793,9.99995985758168
2.1574440002441406,19.78378049899099,9.99995985758168
2.1676127910614014,19.876212916076437,9.99995985758168
2.1767218112945557,19.97188857586664,9.99995985758168
2.188166856765747,20.078915585123475,9.99995985758168
