Time (s),Steering Angle (rad),Reference Steering Rate (rad/s),Measured Steering Rate (rad/s)
0.0029571056365966797,0.0,0.10960651256421591,0.0
0.006493091583251953,0.0,0.10960581474282183,0.0
0.010396003723144531,2.8302636518826966e-05,0.10960442290806885,0.014151318259413483
0.013801097869873047,0.00011321054607530787,0.10960265941368277,0.042453954778240446
0.01768207550048828,0.00022642109215061573,0.10960005182230041,0.05660527303765393
0.020998001098632812,0.0003962369112635775,0.1095972941328968,0.08490790955648089
0.02468705177307129,0.0005660527303765394,0.10959367779831782,0.08490790955648092
0.0279390811920166,0.0007358685494895011,0.10959001302709939,0.08490790955648087
0.030946016311645508,0.0009056843686024629,0.10958619198005215,0.08490790955648092
0.03457903861999512,0.0010471975511965978,0.1095810783067916,0.07075659129706746
0.03850603103637695,0.0012453160068283866,0.10957488864578661,0.09905922781589438
0.04182004928588867,0.0013868291894225213,0.10956917283631523,0.07075659129706735
0.045690059661865234,0.0015283423720166562,0.1095618712852678,0.07075659129706746
0.04819512367248535,0.0016415529180919641,0.1095567640802582,0.05660527303765395
0.05224299430847168,0.0017830661006860988,0.10954804666410477,0.07075659129706735
0.05604410171508789,0.0019245792832802337,0.10953918817692442,0.07075659129706746
0.05980110168457031,0.0020377898293555416,0.10952980962333984,0.05660527303765395
0.06286501884460449,0.0021793030119496765,0.10952166746381585,0.07075659129706746
0.06661820411682129,0.0022925135580249842,0.10951118287398959,0.056605273037653836
0.06992506980895996,0.0024057241041002923,0.10950145650329055,0.05660527303765405
0.07377219200134277,0.002490632013656773,0.10948954013427428,0.04245395477824043
0.07708311080932617,0.002603842559732081,0.10947875407681218,0.056605273037653836
0.08028817176818848,0.0026887504692885617,0.10946787194047117,0.04245395477824043
0.08377718925476074,0.00280196101536387,0.10945548739366015,0.05660527303765405
0.08596205711364746,0.0028585662884015235,0.1094474051053652,0.02830263651882681
0.08855509757995605,0.0029434741979580043,0.10943766366161353,0.04245395477824043
0.09249305725097656,0.003028382107514485,0.10942238516037048,0.04245395477824043
0.09614920616149902,0.00316989529010862,0.1094075023172701,0.07075659129706746
0.09908199310302734,0.003226500563146274,0.10939511533620497,0.028302636518827026
0.10274314880371094,0.003339711109221582,0.10937921639419293,0.056605273037653836
0.10671615600585938,0.0034246190187780627,0.10936124867010558,0.04245395477824043
0.11007905006408691,0.0034812242918157168,0.10934548530404621,0.028302636518827026
0.11388611793518066,0.0035661322013721976,0.10932711353401313,0.04245395477824043
0.1171560287475586,0.0036510401109286785,0.10931077788301502,0.04245395477824043
0.120635986328125,0.0037076453839663326,0.10929294456351109,0.028302636518827026
0.12450718879699707,0.0037925532935228134,0.10927247571165885,0.04245395477824043
0.12890100479125977,0.003934066476116948,0.10924844095590741,0.07075659129706724
0.1321711540222168,0.003990671749154602,0.10923002934129222,0.028302636518827244
0.1359272003173828,0.004075579658711083,0.10921227269361948,0.04245395477824043
0.13965821266174316,0.004217092841305218,0.1091861550326041,0.07075659129706724
0.14278697967529297,0.004330303387380526,0.1091669743119779,0.05660527303765405
0.14609503746032715,0.004415211296937007,0.10914638567790907,0.04245395477824043
0.14980506896972656,0.004556724479531141,0.1091226841639013,0.07075659129706724
0.15359997749328613,0.004669935025606449,0.10909788028981121,0.05660527303765405
0.15674209594726562,0.004839750844719411,0.10907683696580031,0.08490790955648087
0.16000699996948242,0.005009566663832373,0.1090545390302038,0.08490790955648087
0.16371607780456543,0.0051793824829453345,0.10902867146078465,0.08490790955648087
0.16741299629211426,0.005349198302058296,0.10900327536103935,0.08490790955648087
0.17052507400512695,0.005519014121171259,0.10897945373203886,0.0849079095564813
0.17429614067077637,0.0056888299402842206,0.10895144344769729,0.08490790955648087
0.17798614501953125,0.005858645759397182,0.10892347497207001,0.08490790955648087
0.18177008628845215,0.006028461578510144,0.10889403621002601,0.08490790955648087
0.18547916412353516,0.006198277397623106,0.10886464438488644,0.08490790955648087
0.1897120475769043,0.006424698489773721,0.10883044520797903,0.11321054607530767
0.19319701194763184,0.00662281694540551,0.10880235486445489,0.09905922781589449
0.1969141960144043,0.006820935401037299,0.10877039783301604,0.09905922781589449
0.20017218589782715,0.0069624485836314335,0.10874250635019361,0.07075659129706724
0.20386219024658203,0.007132264402744395,0.10871040172385277,0.08490790955648087
0.20742416381835938,0.007330382858376184,0.10868017196776081,0.09905922781589449
0.21097111701965332,0.007471896040970319,0.10864689061627257,0.07075659129706724
0.2143101692199707,0.007670014496602108,0.1086161941891574,0.09905922781589449
0.2180039882659912,0.007811527679196243,0.10858180699103316,0.07075659129706767
0.22133302688598633,0.007981343498309205,0.10855027256466669,0.08490790955648087
0.22510910034179688,0.00812285668090334,0.10851398836442354,0.07075659129706767
0.22829914093017578,0.008292672500016302,0.10848277742575176,0.08490790955648087
0.2320261001586914,0.008462488319129264,0.10844582759909169,0.08490790955648087
0.2343590259552002,0.008632304138242225,0.10842211796414312,0.08490790955648087
0.23856902122497559,0.008773817320836359,0.10837961771751481,0.07075659129706681
0.24183320999145508,0.008971935776468149,0.10834568284751162,0.09905922781589492
0.24567413330078125,0.00914175159558111,0.10830539918660227,0.08490790955648087
0.24896907806396484,0.009311567414694072,0.10827024109579167,0.08490790955648087
0.2527120113372803,0.009453080597288208,0.10822996196540483,0.07075659129706767
0.25596117973327637,0.009594593779882341,0.10819428515503945,0.07075659129706681
0.25902819633483887,0.009736106962476477,0.10816026404073785,0.07075659129706767
0.26291513442993164,0.009905922781589438,0.10811668649876705,0.08490790955648087
0.2666440010070801,0.010047435964183574,0.10807411977290238,0.07075659129706767
0.2698521614074707,0.010188949146777707,0.1080370744212812,0.07075659129706681
0.2723691463470459,0.010330462329371843,0.1080074857987893,0.07075659129706767
0.27656102180480957,0.010471975511965978,0.10795851058414473,0.07075659129706767
0.2803640365600586,0.01064179133107894,0.10791274987610702,0.08490790955648087
0.2836310863494873,0.010783304513673073,0.10787310766208577,0.07075659129706681
0.2878150939941406,0.010953120332786037,0.10782172842284778,0.08490790955648173
0.29151320457458496,0.01109463351538017,0.10777558742408312,0.07075659129706681
0.295428991317749,0.011236146697974306,0.10772882634389536,0.07075659129706767
0.2984910011291504,0.011377659880568441,0.1076870653949205,0.07075659129706767
0.30223917961120605,0.011519173063162575,0.10763865604170479,0.07075659129706681
0.3054990768432617,0.011688988882275536,0.10759598750044766,0.08490790955648087
0.3095681667327881,0.011858804701388498,0.10754224749557727,0.08490790955648087
0.3126959800720215,0.012000317883982634,0.10750049373450545,0.07075659129706767
0.31639719009399414,0.012141831066576769,0.10745055846124459,0.07075659129706767
0.31965017318725586,0.01231164688568973,0.10740597997884756,0.08490790955648087
0.3233451843261719,0.012453160068283866,0.10735716227380697,0.07075659129706767
0.32654619216918945,0.012622975887396828,0.10731035295239429,0.08490790955648087
0.3303110599517822,0.012764489069990961,0.10725721377567339,0.07075659129706681
0.3335890769958496,0.012906002252585097,0.10721048163720578,0.07075659129706767
0.337352991104126,0.013075818071698058,0.10715631849802433,0.08490790955648087
0.3406250476837158,0.013217331254292194,0.10710866882834395,0.07075659129706767
0.3444020748138428,0.013358844436886327,0.1070532525822041,0.07075659129706681
0.34778714179992676,0.013556962892518117,0.10700298423238025,0.09905922781589492
0.35153818130493164,0.01369847607511225,0.1069467481695285,0.07075659129706681
0.35494518280029297,0.01389659453074404,0.10689504982662673,0.09905922781589492
0.35806918144226074,0.014038107713338176,0.10684736141327643,0.07075659129706767
0.3617591857910156,0.014207923532451138,0.10679022759021665,0.08490790955648087
0.36559414863586426,0.014349436715045271,0.10673050598905548,0.07075659129706681
0.3688790798187256,0.014519252534158233,0.10667882403973393,0.08490790955648087
0.3725900650024414,0.014660765716752368,0.10661993846191466,0.07075659129706767
0.37566208839416504,0.01483058153586533,0.10657064172639531,0.08490790955648087
0.3790709972381592,0.014972094718459466,0.1065154591191968,0.07075659129706767
0.38245511054992676,0.015170213174091254,0.10646017730161385,0.09905922781589405
0.3861870765686035,0.015311726356685389,0.10639897732617717,0.07075659129706767
0.3898780345916748,0.015509844812317177,0.10633739574881938,0.09905922781589405
0.39403605461120605,0.015707963267948967,0.1062677008029866,0.09905922781589492
0.3968970775604248,0.01587777908706193,0.10621887387534641,0.08490790955648087
0.401216983795166,0.016019292269656062,0.10614567339240805,0.07075659129706681
0.40450310707092285,0.016217410725287852,0.10608881963026863,0.09905922781589492
0.40853118896484375,0.01633062127136316,0.10601905889592697,0.05660527303765449
0.41278600692749023,0.016585345000032604,0.10594430338460668,0.1273618643347213
0.4160640239715576,0.016755160819145565,0.1058860356122349,0.08490790955648087
0.41980600357055664,0.016924976638258527,0.10581914733204831,0.08490790955648087
0.42296600341796875,0.01709479245737149,0.10576209932137384,0.08490790955648087
0.4267420768737793,0.01726460827648445,0.10569371337468805,0.08490790955648087
0.42995214462280273,0.017434424095597412,0.10563475470189225,0.08490790955648087
0.433657169342041,0.017575937278191546,0.10556668015623333,0.07075659129706681
0.4369680881500244,0.017745753097304508,0.10550491140674223,0.08490790955648087
0.43939709663391113,0.017858963643379817,0.10546204430404363,0.05660527303765449
0.4437379837036133,0.01802877946249278,0.10537767844242525,0.08490790955648087
0.44663310050964355,0.018170292645086912,0.10533342623181886,0.07075659129706681
0.450314998626709,0.018340108464199874,0.1052520791068656,0.08490790955648087
0.45412516593933105,0.018481621646794007,0.10517857311951395,0.07075659129706681
0.4573981761932373,0.01865143746590697,0.10511487315747109,0.08490790955648087
0.46118807792663574,0.01882125328501993,0.1050407347194282,0.08490790955648087
0.4644510746002197,0.018991069104132896,0.10497637283337061,0.0849079095564826
0.46795105934143066,0.01913258228672703,0.10491543464090704,0.07075659129706681
0.47100210189819336,0.01933070074235882,0.10484555669003259,0.09905922781589492
0.4747350215911865,0.01950051656147178,0.10477054426578486,0.08490790955648087
0.4772469997406006,0.019670332380584743,0.10471879870937227,0.08490790955648087
0.48152804374694824,0.01986845083621653,0.10463224356882467,0.09905922781589319
0.48485803604125977,0.02006656929184832,0.10456342044581686,0.09905922781589492
0.48857998847961426,0.02023638511096128,0.10448642103703815,0.08490790955648087
0.4922921657562256,0.02043450356659307,0.10440912711803293,0.09905922781589492
0.496366024017334,0.020632622022224857,0.10432319806595931,0.09905922781589319
0.49977707862854004,0.02080243784133782,0.10425090856911241,0.08490790955648087
0.5035231113433838,0.02097225366045078,0.10417115678938975,0.08490790955648087
0.5066790580749512,0.021142069479563742,0.10410751292570633,0.08490790955648087
0.5104720592498779,0.021311885298676704,0.10402117556078586,0.08490790955648087
0.513092041015625,0.02145339848127084,0.10396353609148105,0.07075659129706854
0.5173430442810059,0.021594911663864975,0.1038710106143647,0.07075659129706681
0.5198299884796143,0.02173642484645911,0.10381583173392987,0.07075659129706681
0.5236661434173584,0.021906240665572074,0.10374809373589332,0.0849079095564826
0.527360200881958,0.02210435912120386,0.1036522349410654,0.09905922781589319
0.5308341979980469,0.02227417494031682,0.10357076132288902,0.08490790955648087
0.5336790084838867,0.02250059603246744,0.10350588442176602,0.11321054607530898
0.5380561351776123,0.0226704118515804,0.10340708293829805,0.08490790955648087
0.5413010120391846,0.022896832943731016,0.10334704938425635,0.11321054607530724
0.5444090366363525,0.02303834612632515,0.10326105978928912,0.07075659129706681
0.5481140613555908,0.02323646458195694,0.10317533800533786,0.09905922781589492
0.550422191619873,0.02343458303758873,0.10312072404044809,0.09905922781589492
0.5534770488739014,0.023547793583664035,0.10306442791060223,0.056605273037652754
0.5574071407318115,0.023774214675814653,0.10295734754628443,0.11321054607530898
0.5612561702728271,0.024000635767965267,0.10286617075278981,0.11321054607530724
0.5645291805267334,0.02417045158707823,0.10278796187377298,0.08490790955648087
0.568411111831665,0.02436857004271002,0.1026951670742393,0.09905922781589492
0.5726261138916016,0.024594991134860633,0.10259329028011525,0.11321054607530724
0.5759110450744629,0.024764806953973595,0.10251329696883661,0.08490790955648087
0.5795040130615234,0.024962925409605385,0.10242593440265106,0.09905922781589492
0.5826389789581299,0.025161043865237175,0.10234818272116102,0.09905922781589492
0.5863971710205078,0.025330859684350136,0.10225533088006349,0.08490790955648087
0.5896880626678467,0.025528978139981923,0.10217353362277273,0.09905922781589319
0.5938479900360107,0.025727096595613713,0.10206967841276986,0.09905922781589492
0.5970501899719238,0.025896912414726674,0.10198904131370258,0.08490790955648087
0.6005990505218506,0.026038425597320808,0.1018994649045182,0.07075659129706681
0.6038780212402344,0.026236544052952598,0.10181581169960095,0.09905922781589492
0.6078071594238281,0.02640635987206556,0.10171582048858274,0.08490790955648087
0.6114439964294434,0.026632780964216174,0.10162582285859845,0.11321054607530724
0.6150100231170654,0.026802596783329136,0.10152947688130928,0.08490790955648087
0.618340015411377,0.027029017875479754,0.10144282564528449,0.11321054607530898
0.6222290992736816,0.02722713633111154,0.10134130545267332,0.09905922781589319
0.6261131763458252,0.027481860059780983,0.10125347888683099,0.1273618643347213
0.6297969818115234,0.0277082811519316,0.10114146983716672,0.11321054607530898
0.6335580348968506,0.027878096971044562,0.10104126568152597,0.08490790955648087
0.6370279788970947,0.028104518063195177,0.10094844179737944,0.11321054607530724
0.6408030986785889,0.028246031245789314,0.10084707448271858,0.07075659129706854
0.644111156463623,0.02847245233793993,0.10075756213726213,0.11321054607530724
0.6478450298309326,0.02864226815705289,0.1006559783653753,0.08490790955648087
0.6509361267089844,0.02884038661268468,0.10057145400858276,0.09905922781589492
0.6546621322631836,0.02901020243179764,0.10046918445404093,0.08490790955648087
0.6579101085662842,0.029236623523948256,0.10037953723495399,0.11321054607530724
0.6617040634155273,0.029406439343061218,0.10027428866586005,0.08490790955648087
0.6650300025939941,0.029604557798693008,0.10018161019165525,0.09905922781589492
0.6686999797821045,0.02977437361780597,0.1000788950537105,0.08490790955648087
0.6719751358032227,0.030000794709956584,0.09998676404425251,0.11321054607530724
0.6756551265716553,0.030170610529069546,0.09988267207883852,0.08490790955648087
0.6788201332092285,0.03039703162122016,0.09979252282268637,0.11321054607530724
0.6813130378723145,0.03059515007685195,0.09972087580829021,0.09905922781589492
0.6857020854949951,0.030849873805521393,0.09959573273732404,0.1273618643347213
0.6895091533660889,0.031104597534190835,0.0994859581788396,0.1273618643347213
0.6927831172943115,0.03130271598982262,0.09939093779039533,0.09905922781589319
0.6969051361083984,0.03152913708197324,0.09927128677088125,0.11321054607530898
0.7005012035369873,0.03181216344716151,0.0991658480047985,0.14151318259413362
0.7030529975891113,0.0320102819027933,0.09909032367477602,0.09905922781589666
0.707686185836792,0.03226500563146274,0.09895675781807224,0.1273618643347213
0.711467981338501,0.032519729360132185,0.09884674710556739,0.1273618643347213
0.7148041725158691,0.0327461504522828,0.09874233062962673,0.11321054607530898
0.7180531024932861,0.03294426890791459,0.09864481684000677,0.09905922781589319
0.7218530178070068,0.03319899263658403,0.09853066950740216,0.1273618643347213
0.7257590293884277,0.03342541372873465,0.09841247850956891,0.11321054607530898
0.7291061878204346,0.03365183482088526,0.09831075359599153,0.11321054607530551
0.732842206954956,0.03387825591303588,0.09819647333574694,0.11321054607530898
0.7360761165618896,0.034076374368667665,0.09809748254188645,0.09905922781589319
0.739739179611206,0.03427449282429946,0.09798490594223506,0.09905922781589666
0.7428929805755615,0.03450091391645007,0.09788710102102997,0.11321054607530551
0.7466351985931396,0.03472733500860069,0.0977710075881772,0.11321054607530898
0.7498691082000732,0.034925453464232474,0.09767004240898246,0.09905922781589319
0.753648042678833,0.03518017719290192,0.09755173035223764,0.1273618643347213
0.7569310665130615,0.03537829564853371,0.09744834198347631,0.09905922781589666
0.7607021331787109,0.035576414104165496,0.097329312745319,0.09905922781589319
0.7639560699462891,0.035802835196316114,0.09722605665353147,0.11321054607530898
0.7676331996917725,0.035972651015429076,0.09710898140007902,0.08490790955648087
0.7707550525665283,0.03619907210757969,0.0970089267839453,0.11321054607530551
0.77400803565979,0.03639719056321148,0.09690441624784858,0.09905922781589666
0.7776670455932617,0.03659530901884327,0.09678651185630623,0.09905922781589319
0.7814860343933105,0.036821730110993885,0.09666276406101161,0.11321054607530898
0.7847721576690674,0.037048151203144496,0.09655590934342691,0.11321054607530551
0.787992000579834,0.037274572295295114,0.09645077267724989,0.11321054607530898
0.7916491031646729,0.03750099338744573,0.09633114581127822,0.11321054607530898
0.7953691482543945,0.03772741447959635,0.09621348232714041,0.11321054607530898
0.7990071773529053,0.03795383557174696,0.0960881855231463,0.11321054607530551
0.8030710220336914,0.038236861936935235,0.09595325044142283,0.1415131825941371
0.8066580295562744,0.03843498039256702,0.09583351180198985,0.09905922781589319
0.8106100559234619,0.03866140148471764,0.09570119376056642,0.11321054607530898
0.813866138458252,0.038859519940349425,0.09559141562643243,0.09905922781589319
0.817669153213501,0.03908594103250004,0.09546333861645949,0.11321054607530898
0.8209450244903564,0.039255756851613005,0.09535201167348065,0.08490790955648087
0.8248012065887451,0.03945387530724479,0.09522090701798873,0.09905922781589319
0.8280611038208008,0.03962369112635775,0.09510958806182417,0.08490790955648087
0.8318359851837158,0.03982180958198954,0.09498045375470689,0.09905922781589319
0.83492112159729,0.0399916254011025,0.09487379387157041,0.08490790955648087
0.8386521339416504,0.04021804649325312,0.09474486357980592,0.11321054607530898
0.841871976852417,0.040416164948884906,0.09463310431019618,0.09905922781589319
0.8457410335540771,0.040642586041035524,0.09449862935229775,0.11321054607530898
0.8490300178527832,0.04084070449666731,0.09438360550814966,0.09905922781589319
0.8528151512145996,0.04106712558881793,0.09425070729468292,0.11321054607530898
0.8560512065887451,0.04123694140793089,0.09413678407248532,0.08490790955648087
0.8599891662597656,0.04146336250008151,0.09399776240491158,0.11321054607530898
0.8633251190185547,0.04163317831919447,0.09388490147090793,0.08490790955648087
0.8669440746307373,0.04185959941134508,0.09375022722256429,0.11321054607530551
0.8702042102813721,0.04202941523045804,0.09363382329453891,0.08490790955648087
0.8740010261535645,0.042227533686089835,0.09349766736868265,0.09905922781589666
0.8772671222686768,0.0423973495052028,0.0933801226013054,0.08490790955648087
